# OpenSignals Text File Format. Version 1
# {"00:21:08:35:15:13": {"position": 0, "device": "bitalino_rev", "device name": "00:21:08:35:15:13", "device connection": "BTH00:21:08:35:15:13", "sampling rate": 1000, "resolution": [4, 1, 1, 1, 1, 10, 10, 10, 10, 6, 6], "firmware version": 1282, "comments": "", "keywords": "", "mode": 0, "sync interval": 2, "date": "2025-4-28", "time": "19:2:8.329", "channels": [1, 2, 3, 4, 5, 6], "sensor": ["RAW", "RAW", "RAW", "RAW", "RAW", "RAW"], "label": ["A1", "A2", "A3", "A4", "A5", "A6"], "column": ["nSeq", "I1", "I2", "O1", "O2", "A1", "A2", "A3", "A4", "A5", "A6"], "special": [{}, {}, {}, {}, {}, {}], "digital IO": [0, 0, 1, 1]}}
# EndOfHeader
0	0	0	0	0	0	527	0	0	0	0	
1	0	0	0	0	0	526	0	0	0	0	
2	0	0	0	0	0	526	0	0	0	0	
3	0	0	0	0	1	526	0	0	0	0	
4	0	0	0	0	0	526	0	0	0	0	
5	0	0	0	0	0	525	0	0	0	0	
6	0	0	0	0	0	525	0	0	0	0	
7	0	0	0	0	0	526	0	0	0	0	
8	0	0	0	0	0	525	0	0	0	0	
9	0	0	0	0	0	525	0	0	0	0	
10	0	0	0	0	0	524	0	0	0	0	
11	0	0	0	0	1	524	0	0	0	0	
12	0	0	0	0	0	525	0	0	0	0	
13	0	0	0	0	0	525	0	0	0	0	
14	0	0	0	0	0	525	0	0	0	0	
15	0	0	0	0	0	524	0	0	0	0	
0	0	0	0	0	0	524	0	0	0	0	
1	0	0	0	0	0	524	0	0	0	0	
2	0	0	0	0	0	524	0	0	0	0	
3	0	0	0	0	1	524	0	0	0	0	
4	0	0	0	0	0	524	0	0	0	0	
5	0	0	0	0	0	525	0	0	0	0	
6	0	0	0	0	0	525	0	0	0	0	
7	0	0	0	0	0	525	0	0	0	0	
8	0	0	0	0	0	525	0	0	0	0	
9	0	0	0	0	0	525	0	0	0	0	
10	0	0	0	0	0	526	0	0	0	0	
11	0	0	0	0	1	527	0	0	0	0	
12	0	0	0	0	0	527	0	0	0	0	
13	0	0	0	0	0	526	0	0	0	0	
14	0	0	0	0	0	526	0	0	0	0	
15	0	0	0	0	0	525	0	0	0	0	
0	0	0	0	0	0	523	0	0	0	0	
1	0	0	0	0	0	522	0	0	0	0	
2	0	0	0	0	0	520	0	0	0	0	
3	0	0	0	0	1	519	0	0	0	0	
4	0	0	0	0	0	517	0	0	0	0	
5	0	0	0	0	0	516	0	0	0	0	
6	0	0	0	0	0	515	0	0	0	0	
7	0	0	0	0	0	515	0	0	0	0	
8	0	0	0	0	0	514	0	0	0	0	
9	0	0	0	0	0	513	0	0	0	0	
10	0	0	0	0	0	513	0	0	0	0	
11	0	0	0	0	0	512	0	0	0	0	
12	0	0	0	0	0	513	0	0	0	0	
13	0	0	0	0	0	512	0	0	0	0	
14	0	0	0	0	0	511	0	0	0	0	
15	0	0	0	0	0	511	0	0	0	0	
0	0	0	0	0	0	511	0	0	0	0	
1	0	0	0	0	0	511	0	0	0	0	
2	0	0	0	0	0	511	0	0	0	0	
3	0	0	0	0	0	510	0	0	0	0	
4	0	0	0	0	0	509	0	0	0	0	
5	0	0	0	0	0	509	0	0	0	0	
6	0	0	0	0	0	508	0	0	0	0	
7	0	0	0	0	0	508	0	0	0	0	
8	0	0	0	0	0	506	0	0	0	0	
9	0	0	0	0	0	505	0	0	0	0	
10	0	0	0	0	0	504	0	0	0	0	
11	0	0	0	0	0	504	0	0	0	0	
12	0	0	0	0	0	503	0	0	0	0	
13	0	0	0	0	0	502	0	0	0	0	
14	0	0	0	0	0	500	0	0	0	0	
15	0	0	0	0	0	500	0	0	0	0	
0	0	0	0	0	0	500	0	0	0	0	
1	0	0	0	0	0	499	0	0	0	0	
2	0	0	0	0	0	499	0	0	0	0	
3	0	0	0	0	1	498	0	0	0	0	
4	0	0	0	0	0	496	0	0	0	0	
5	0	0	0	0	0	495	0	0	0	0	
6	0	0	0	0	0	494	0	0	0	0	
7	0	0	0	0	0	492	0	0	0	0	
8	0	0	0	0	0	492	0	0	0	0	
9	0	0	0	0	0	491	0	0	0	0	
10	0	0	0	0	0	490	0	0	0	0	
11	0	0	0	0	1	490	0	0	0	0	
12	0	0	0	0	0	489	0	0	0	0	
13	0	0	0	0	0	488	0	0	0	0	
14	0	0	0	0	0	487	0	0	0	0	
15	0	0	0	0	0	486	0	0	0	0	
0	0	0	0	0	0	486	0	0	0	0	
1	0	0	0	0	0	486	0	0	0	0	
2	0	0	0	0	0	485	0	0	0	0	
3	0	0	0	0	1	484	0	0	0	0	
4	0	0	0	0	0	483	0	0	0	0	
5	0	0	0	0	0	482	0	0	0	0	
6	0	0	0	0	0	481	0	0	0	0	
7	0	0	0	0	0	481	0	0	0	0	
8	0	0	0	0	0	480	0	0	0	0	
9	0	0	0	0	0	480	0	0	0	0	
10	0	0	0	0	0	480	0	0	0	0	
11	0	0	0	0	1	479	0	0	0	0	
12	0	0	0	0	0	478	0	0	0	0	
13	0	0	0	0	0	478	0	0	0	0	
14	0	0	0	0	0	478	0	0	0	0	
15	0	0	0	0	0	477	0	0	0	0	
0	0	0	0	0	0	477	0	0	0	0	
1	0	0	0	0	0	476	0	0	0	0	
2	0	0	0	0	0	476	0	0	0	0	
3	0	0	0	0	1	476	0	0	0	0	
4	0	0	0	0	0	476	0	0	0	0	
5	0	0	0	0	0	476	0	0	0	0	
6	0	0	0	0	0	476	0	0	0	0	
7	0	0	0	0	0	476	0	0	0	0	
8	0	0	0	0	0	476	0	0	0	0	
9	0	0	0	0	0	476	0	0	0	0	
10	0	0	0	0	0	476	0	0	0	0	
11	0	0	0	0	1	476	0	0	0	0	
12	0	0	0	0	0	476	0	0	0	0	
13	0	0	0	0	0	476	0	0	0	0	
14	0	0	0	0	0	476	0	0	0	0	
15	0	0	0	0	0	477	0	0	0	0	
0	0	0	0	0	0	478	0	0	0	0	
1	0	0	0	0	0	479	0	0	0	0	
2	0	0	0	0	0	480	0	0	0	0	
3	0	0	0	0	1	480	0	0	0	0	
4	0	0	0	0	0	481	0	0	0	0	
5	0	0	0	0	0	481	0	0	0	0	
6	0	0	0	0	0	481	0	0	0	0	
7	0	0	0	0	0	481	0	0	0	0	
8	0	0	0	0	0	482	0	0	0	0	
9	0	0	0	0	0	483	0	0	0	0	
10	0	0	0	0	0	483	0	0	0	0	
11	0	0	0	0	1	483	0	0	0	0	
12	0	0	0	0	0	484	0	0	0	0	
13	0	0	0	0	0	485	0	0	0	0	
14	0	0	0	0	0	485	0	0	0	0	
15	0	0	0	0	0	486	0	0	0	0	
0	0	0	0	0	0	487	0	0	0	0	
1	0	0	0	0	0	488	0	0	0	0	
2	0	0	0	0	0	488	0	0	0	0	
3	0	0	0	0	1	489	0	0	0	0	
4	0	0	0	0	0	492	0	0	0	0	
5	0	0	0	0	0	493	0	0	0	0	
6	0	0	0	0	0	495	0	0	0	0	
7	0	0	0	0	0	496	0	0	0	0	
8	0	0	0	0	0	498	0	0	0	0	
9	0	0	0	0	0	499	0	0	0	0	
10	0	0	0	0	0	501	0	0	0	0	
11	0	0	0	0	1	502	0	0	0	0	
12	0	0	0	0	0	503	0	0	0	0	
13	0	0	0	0	0	504	0	0	0	0	
14	0	0	0	0	0	506	0	0	0	0	
15	0	0	0	0	0	507	0	0	0	0	
0	0	0	0	0	0	508	0	0	0	0	
1	0	0	0	0	0	509	0	0	0	0	
2	0	0	0	0	0	510	0	0	0	0	
3	0	0	0	0	1	511	0	0	0	0	
4	0	0	0	0	0	512	0	0	0	0	
5	0	0	0	0	0	512	0	0	0	0	
6	0	0	0	0	0	512	0	0	0	0	
7	0	0	0	0	0	512	0	0	0	0	
8	0	0	0	0	0	512	0	0	0	0	
9	0	0	0	0	0	512	0	0	0	0	
10	0	0	0	0	0	513	0	0	0	0	
11	0	0	0	0	1	512	0	0	0	0	
12	0	0	0	0	0	513	0	0	0	0	
13	0	0	0	0	0	514	0	0	0	0	
14	0	0	0	0	0	514	0	0	0	0	
15	0	0	0	0	0	515	0	0	0	0	
0	0	0	0	0	0	515	0	0	0	0	
1	0	0	0	0	0	515	0	0	0	0	
2	0	0	0	0	0	515	0	0	0	0	
3	0	0	0	0	1	515	0	0	0	0	
4	0	0	0	0	0	515	0	0	0	0	
5	0	0	0	0	0	515	0	0	0	0	
6	0	0	0	0	0	516	0	0	0	0	
7	0	0	0	0	0	516	0	0	0	0	
8	0	0	0	0	0	515	0	0	0	0	
9	0	0	0	0	0	516	0	0	0	0	
10	0	0	0	0	0	516	0	0	0	0	
11	0	0	0	0	1	516	0	0	0	0	
12	0	0	0	0	0	516	0	0	0	0	
13	0	0	0	0	0	517	0	0	0	0	
14	0	0	0	0	0	516	0	0	0	0	
15	0	0	0	0	0	516	0	0	0	0	
0	0	0	0	0	0	516	0	0	0	0	
1	0	0	0	0	0	517	0	0	0	0	
2	0	0	0	0	0	517	0	0	0	0	
3	0	0	0	0	1	517	0	0	0	0	
4	0	0	0	0	0	516	0	0	0	0	
5	0	0	0	0	0	517	0	0	0	0	
6	0	0	0	0	0	516	0	0	0	0	
7	0	0	0	0	0	515	0	0	0	0	
8	0	0	0	0	0	515	0	0	0	0	
9	0	0	0	0	0	514	0	0	0	0	
10	0	0	0	0	0	513	0	0	0	0	
11	0	0	0	0	1	512	0	0	0	0	
12	0	0	0	0	0	510	0	0	0	0	
13	0	0	0	0	0	509	0	0	0	0	
14	0	0	0	0	0	508	0	0	0	0	
15	0	0	0	0	0	508	0	0	0	0	
0	0	0	0	0	0	508	0	0	0	0	
1	0	0	0	0	0	506	0	0	0	0	
2	0	0	0	0	0	506	0	0	0	0	
3	0	0	0	0	1	506	0	0	0	0	
4	0	0	0	0	0	506	0	0	0	0	
5	0	0	0	0	0	506	0	0	0	0	
6	0	0	0	0	0	506	0	0	0	0	
7	0	0	0	0	0	506	0	0	0	0	
8	0	0	0	0	0	506	0	0	0	0	
9	0	0	0	0	0	505	0	0	0	0	
10	0	0	0	0	0	504	0	0	0	0	
11	0	0	0	0	1	504	0	0	0	0	
12	0	0	0	0	0	505	0	0	0	0	
13	0	0	0	0	0	506	0	0	0	0	
14	0	0	0	0	0	508	0	0	0	0	
15	0	0	0	0	0	510	0	0	0	0	
0	0	0	0	0	0	511	0	0	0	0	
1	0	0	0	0	0	512	0	0	0	0	
2	0	0	0	0	0	512	0	0	0	0	
3	0	0	0	0	1	513	0	0	0	0	
4	0	0	0	0	0	513	0	0	0	0	
5	0	0	0	0	0	513	0	0	0	0	
6	0	0	0	0	0	513	0	0	0	0	
7	0	0	0	0	0	513	0	0	0	0	
8	0	0	0	0	0	513	0	0	0	0	
9	0	0	0	0	0	513	0	0	0	0	
10	0	0	0	0	0	513	0	0	0	0	
11	0	0	0	0	1	513	0	0	0	0	
12	0	0	0	0	0	513	0	0	0	0	
13	0	0	0	0	0	513	0	0	0	0	
14	0	0	0	0	0	513	0	0	0	0	
15	0	0	0	0	0	512	0	0	0	0	
0	0	0	0	0	0	512	0	0	0	0	
1	0	0	0	0	0	511	0	0	0	0	
2	0	0	0	0	0	509	0	0	0	0	
3	0	0	0	0	1	508	0	0	0	0	
4	0	0	0	0	0	508	0	0	0	0	
5	0	0	0	0	0	508	0	0	0	0	
6	0	0	0	0	0	508	0	0	0	0	
7	0	0	0	0	0	508	0	0	0	0	
8	0	0	0	0	0	508	0	0	0	0	
9	0	0	0	0	0	507	0	0	0	0	
10	0	0	0	0	0	507	0	0	0	0	
11	0	0	0	0	1	505	0	0	0	0	
12	0	0	0	0	0	505	0	0	0	0	
13	0	0	0	0	0	505	0	0	0	0	
14	0	0	0	0	0	504	0	0	0	0	
15	0	0	0	0	0	505	0	0	0	0	
0	0	0	0	0	0	505	0	0	0	0	
1	0	0	0	0	0	505	0	0	0	0	
2	0	0	0	0	0	506	0	0	0	0	
3	0	0	0	0	1	506	0	0	0	0	
4	0	0	0	0	0	506	0	0	0	0	
5	0	0	0	0	0	506	0	0	0	0	
6	0	0	0	0	0	506	0	0	0	0	
7	0	0	0	0	0	507	0	0	0	0	
8	0	0	0	0	0	507	0	0	0	0	
9	0	0	0	0	0	506	0	0	0	0	
10	0	0	0	0	0	507	0	0	0	0	
11	0	0	0	0	1	507	0	0	0	0	
12	0	0	0	0	0	507	0	0	0	0	
13	0	0	0	0	0	508	0	0	0	0	
14	0	0	0	0	0	509	0	0	0	0	
15	0	0	0	0	0	510	0	0	0	0	
0	0	0	0	0	0	510	0	0	0	0	
1	0	0	0	0	0	509	0	0	0	0	
2	0	0	0	0	0	508	0	0	0	0	
3	0	0	0	0	1	507	0	0	0	0	
4	0	0	0	0	0	506	0	0	0	0	
5	0	0	0	0	0	505	0	0	0	0	
6	0	0	0	0	0	506	0	0	0	0	
7	0	0	0	0	0	505	0	0	0	0	
8	0	0	0	0	0	506	0	0	0	0	
9	0	0	0	0	0	506	0	0	0	0	
10	0	0	0	0	0	507	0	0	0	0	
11	0	0	0	0	0	507	0	0	0	0	
12	0	0	0	0	0	508	0	0	0	0	
13	0	0	0	0	0	510	0	0	0	0	
14	0	0	0	0	0	511	0	0	0	0	
15	0	0	0	0	0	512	0	0	0	0	
0	0	0	0	0	0	515	0	0	0	0	
1	0	0	0	0	0	517	0	0	0	0	
2	0	0	0	0	0	520	0	0	0	0	
3	0	0	0	0	0	522	0	0	0	0	
4	0	0	0	0	0	524	0	0	0	0	
5	0	0	0	0	0	525	0	0	0	0	
6	0	0	0	0	0	526	0	0	0	0	
7	0	0	0	0	0	527	0	0	0	0	
8	0	0	0	0	0	527	0	0	0	0	
9	0	0	0	0	0	527	0	0	0	0	
10	0	0	0	0	0	527	0	0	0	0	
11	0	0	0	0	1	527	0	0	0	0	
12	0	0	0	0	0	527	0	0	0	0	
13	0	0	0	0	0	527	0	0	0	0	
14	0	0	0	0	0	529	0	0	0	0	
15	0	0	0	0	0	530	0	0	0	0	
0	0	0	0	0	0	531	0	0	0	0	
1	0	0	0	0	0	532	0	0	0	0	
2	0	0	0	0	0	533	0	0	0	0	
3	0	0	0	0	1	534	0	0	0	0	
4	0	0	0	0	0	535	0	0	0	0	
5	0	0	0	0	0	535	0	0	0	0	
6	0	0	0	0	0	536	0	0	0	0	
7	0	0	0	0	0	538	0	0	0	0	
8	0	0	0	0	0	540	0	0	0	0	
9	0	0	0	0	0	542	0	0	0	0	
10	0	0	0	0	0	543	0	0	0	0	
11	0	0	0	0	1	545	0	0	0	0	
12	0	0	0	0	0	545	0	0	0	0	
13	0	0	0	0	0	545	0	0	0	0	
14	0	0	0	0	0	545	0	0	0	0	
15	0	0	0	0	0	545	0	0	0	0	
0	0	0	0	0	0	544	0	0	0	0	
1	0	0	0	0	0	544	0	0	0	0	
2	0	0	0	0	0	543	0	0	0	0	
3	0	0	0	0	1	542	0	0	0	0	
4	0	0	0	0	0	541	0	0	0	0	
5	0	0	0	0	0	541	0	0	0	0	
6	0	0	0	0	0	541	0	0	0	0	
7	0	0	0	0	0	541	0	0	0	0	
8	0	0	0	0	0	542	0	0	0	0	
9	0	0	0	0	0	542	0	0	0	0	
10	0	0	0	0	0	543	0	0	0	0	
11	0	0	0	0	1	543	0	0	0	0	
12	0	0	0	0	0	544	0	0	0	0	
13	0	0	0	0	0	545	0	0	0	0	
14	0	0	0	0	0	545	0	0	0	0	
15	0	0	0	0	0	546	0	0	0	0	
0	0	0	0	0	0	546	0	0	0	0	
1	0	0	0	0	0	547	0	0	0	0	
2	0	0	0	0	0	545	0	0	0	0	
3	0	0	0	0	1	544	0	0	0	0	
4	0	0	0	0	0	544	0	0	0	0	
5	0	0	0	0	0	543	0	0	0	0	
6	0	0	0	0	0	542	0	0	0	0	
7	0	0	0	0	0	540	0	0	0	0	
8	0	0	0	0	0	539	0	0	0	0	
9	0	0	0	0	0	538	0	0	0	0	
10	0	0	0	0	0	537	0	0	0	0	
11	0	0	0	0	1	536	0	0	0	0	
12	0	0	0	0	0	534	0	0	0	0	
13	0	0	0	0	0	532	0	0	0	0	
14	0	0	0	0	0	530	0	0	0	0	
15	0	0	0	0	0	527	0	0	0	0	
0	0	0	0	0	0	523	0	0	0	0	
1	0	0	0	0	0	519	0	0	0	0	
2	0	0	0	0	0	516	0	0	0	0	
3	0	0	0	0	1	513	0	0	0	0	
4	0	0	0	0	0	510	0	0	0	0	
5	0	0	0	0	0	507	0	0	0	0	
6	0	0	0	0	0	505	0	0	0	0	
7	0	0	0	0	0	504	0	0	0	0	
8	0	0	0	0	0	504	0	0	0	0	
9	0	0	0	0	0	502	0	0	0	0	
10	0	0	0	0	0	501	0	0	0	0	
11	0	0	0	0	1	501	0	0	0	0	
12	0	0	0	0	0	500	0	0	0	0	
13	0	0	0	0	0	499	0	0	0	0	
14	0	0	0	0	0	497	0	0	0	0	
15	0	0	0	0	0	496	0	0	0	0	
0	0	0	0	0	0	495	0	0	0	0	
1	0	0	0	0	0	494	0	0	0	0	
2	0	0	0	0	0	494	0	0	0	0	
3	0	0	0	0	1	494	0	0	0	0	
4	0	0	0	0	0	494	0	0	0	0	
5	0	0	0	0	0	492	0	0	0	0	
6	0	0	0	0	0	492	0	0	0	0	
7	0	0	0	0	0	492	0	0	0	0	
8	0	0	0	0	0	492	0	0	0	0	
9	0	0	0	0	0	491	0	0	0	0	
10	0	0	0	0	0	491	0	0	0	0	
11	0	0	0	0	1	490	0	0	0	0	
12	0	0	0	0	0	490	0	0	0	0	
13	0	0	0	0	0	490	0	0	0	0	
14	0	0	0	0	0	490	0	0	0	0	
15	0	0	0	0	0	491	0	0	0	0	
0	0	0	0	0	0	491	0	0	0	0	
1	0	0	0	0	0	491	0	0	0	0	
2	0	0	0	0	0	491	0	0	0	0	
3	0	0	0	0	1	491	0	0	0	0	
4	0	0	0	0	0	490	0	0	0	0	
5	0	0	0	0	0	489	0	0	0	0	
6	0	0	0	0	0	489	0	0	0	0	
7	0	0	0	0	0	489	0	0	0	0	
8	0	0	0	0	0	489	0	0	0	0	
9	0	0	0	0	0	489	0	0	0	0	
10	0	0	0	0	0	489	0	0	0	0	
11	0	0	0	0	1	489	0	0	0	0	
12	0	0	0	0	0	488	0	0	0	0	
13	0	0	0	0	0	488	0	0	0	0	
14	0	0	0	0	0	488	0	0	0	0	
15	0	0	0	0	0	489	0	0	0	0	
0	0	0	0	0	0	489	0	0	0	0	
1	0	0	0	0	0	489	0	0	0	0	
2	0	0	0	0	0	489	0	0	0	0	
3	0	0	0	0	1	490	0	0	0	0	
4	0	0	0	0	0	490	0	0	0	0	
5	0	0	0	0	0	491	0	0	0	0	
6	0	0	0	0	0	491	0	0	0	0	
7	0	0	0	0	0	490	0	0	0	0	
8	0	0	0	0	0	490	0	0	0	0	
9	0	0	0	0	0	491	0	0	0	0	
10	0	0	0	0	0	492	0	0	0	0	
11	0	0	0	0	1	494	0	0	0	0	
12	0	0	0	0	0	495	0	0	0	0	
13	0	0	0	0	0	494	0	0	0	0	
14	0	0	0	0	0	494	0	0	0	0	
15	0	0	0	0	0	495	0	0	0	0	
0	0	0	0	0	0	495	0	0	0	0	
1	0	0	0	0	0	496	0	0	0	0	
2	0	0	0	0	0	496	0	0	0	0	
3	0	0	0	0	1	497	0	0	0	0	
4	0	0	0	0	0	498	0	0	0	0	
5	0	0	0	0	0	499	0	0	0	0	
6	0	0	0	0	0	498	0	0	0	0	
7	0	0	0	0	0	498	0	0	0	0	
8	0	0	0	0	0	497	0	0	0	0	
9	0	0	0	0	0	497	0	0	0	0	
10	0	0	0	0	0	497	0	0	0	0	
11	0	0	0	0	1	497	0	0	0	0	
12	0	0	0	0	0	496	0	0	0	0	
13	0	0	0	0	0	494	0	0	0	0	
14	0	0	0	0	0	492	0	0	0	0	
15	0	0	0	0	0	491	0	0	0	0	
0	0	0	0	0	0	489	0	0	0	0	
1	0	0	0	0	0	487	0	0	0	0	
2	0	0	0	0	0	486	0	0	0	0	
3	0	0	0	0	1	484	0	0	0	0	
4	0	0	0	0	0	484	0	0	0	0	
5	0	0	0	0	0	484	0	0	0	0	
6	0	0	0	0	0	486	0	0	0	0	
7	0	0	0	0	0	491	0	0	0	0	
8	0	0	0	0	0	496	0	0	0	0	
9	0	0	0	0	0	503	0	0	0	0	
10	0	0	0	0	0	511	0	0	0	0	
11	0	0	0	0	1	521	0	0	0	0	
12	0	0	0	0	0	532	0	0	0	0	
13	0	0	0	0	0	544	0	0	0	0	
14	0	0	0	0	0	557	0	0	0	0	
15	0	0	0	0	0	569	0	0	0	0	
0	0	0	0	0	0	581	0	0	0	0	
1	0	0	0	0	0	594	0	0	0	0	
2	0	0	0	0	0	607	0	0	0	0	
3	0	0	0	0	1	621	0	0	0	0	
4	0	0	0	0	0	637	0	0	0	0	
5	0	0	0	0	0	652	1	0	0	0	
6	0	0	0	0	0	668	1	0	0	0	
7	0	0	0	0	0	685	1	0	0	0	
8	0	0	0	0	0	704	1	0	0	0	
9	0	0	0	0	0	726	1	0	0	0	
10	0	0	0	0	0	750	1	0	0	0	
11	0	0	0	0	1	775	1	0	0	0	
12	0	0	0	0	0	802	1	0	0	0	
13	0	0	0	0	0	830	2	0	0	0	
14	0	0	0	0	0	856	2	0	0	0	
15	0	0	0	0	0	880	2	0	0	0	
0	0	0	0	0	0	903	2	0	0	0	
1	0	0	0	0	0	923	2	0	0	0	
2	0	0	0	0	0	941	2	0	0	0	
3	0	0	0	0	1	956	3	0	0	0	
4	0	0	0	0	0	969	3	0	0	0	
5	0	0	0	0	0	979	3	0	0	0	
6	0	0	0	0	0	983	3	0	0	0	
7	0	0	0	0	0	975	3	0	0	0	
8	0	0	0	0	0	959	2	0	0	0	
9	0	0	0	0	0	937	2	0	0	0	
10	0	0	0	0	0	911	2	0	0	0	
11	0	0	0	0	1	880	2	0	0	0	
12	0	0	0	0	0	841	2	0	0	0	
13	0	0	0	0	0	797	1	0	0	0	
14	0	0	0	0	0	751	1	0	0	0	
15	0	0	0	0	0	708	1	0	0	0	
0	0	0	0	0	0	668	1	0	0	0	
1	0	0	0	0	0	631	0	0	0	0	
2	0	0	0	0	0	598	0	0	0	0	
3	0	0	0	0	1	570	0	0	0	0	
4	0	0	0	0	0	545	0	0	0	0	
5	0	0	0	0	0	524	0	0	0	0	
6	0	0	0	0	0	506	0	0	0	0	
7	0	0	0	0	0	490	0	0	0	0	
8	0	0	0	0	0	474	0	0	0	0	
9	0	0	0	0	0	458	0	0	0	0	
10	0	0	0	0	0	444	0	0	0	0	
11	0	0	0	0	1	430	0	0	0	0	
12	0	0	0	0	0	417	0	0	0	0	
13	0	0	0	0	0	406	0	0	0	0	
14	0	0	0	0	0	395	0	0	0	0	
15	0	0	0	0	0	384	0	0	0	0	
0	0	0	0	0	0	374	0	0	0	0	
1	0	0	0	0	0	363	0	0	0	0	
2	0	0	0	0	0	351	0	0	0	0	
3	0	0	0	0	0	339	0	0	0	0	
4	0	0	0	0	0	329	0	0	0	0	
5	0	0	0	0	0	321	0	0	0	0	
6	0	0	0	0	0	316	0	0	0	0	
7	0	0	0	0	0	314	0	0	0	0	
8	0	0	0	0	0	315	0	0	0	0	
9	0	0	0	0	0	319	0	0	0	0	
10	0	0	0	0	0	326	0	0	0	0	
11	0	0	0	0	0	334	0	0	0	0	
12	0	0	0	0	0	343	0	0	0	0	
13	0	0	0	0	0	351	0	0	0	0	
14	0	0	0	0	0	360	0	0	0	0	
15	0	0	0	0	0	368	0	0	0	0	
0	0	0	0	0	0	374	0	0	0	0	
1	0	0	0	0	0	380	0	0	0	0	
2	0	0	0	0	0	386	0	0	0	0	
3	0	0	0	0	0	393	0	0	0	0	
4	0	0	0	0	0	401	0	0	0	0	
5	0	0	0	0	0	408	0	0	0	0	
6	0	0	0	0	0	413	0	0	0	0	
7	0	0	0	0	0	418	0	0	0	0	
8	0	0	0	0	0	423	0	0	0	0	
9	0	0	0	0	0	426	0	0	0	0	
10	0	0	0	0	0	430	0	0	0	0	
11	0	0	0	0	1	432	0	0	0	0	
12	0	0	0	0	0	435	0	0	0	0	
13	0	0	0	0	0	438	0	0	0	0	
14	0	0	0	0	0	441	0	0	0	0	
15	0	0	0	0	0	442	0	0	0	0	
0	0	0	0	0	0	444	0	0	0	0	
1	0	0	0	0	0	446	0	0	0	0	
2	0	0	0	0	0	448	0	0	0	0	
3	0	0	0	0	1	449	0	0	0	0	
4	0	0	0	0	0	450	0	0	0	0	
5	0	0	0	0	0	451	0	0	0	0	
6	0	0	0	0	0	451	0	0	0	0	
7	0	0	0	0	0	453	0	0	0	0	
8	0	0	0	0	0	454	0	0	0	0	
9	0	0	0	0	0	454	0	0	0	0	
10	0	0	0	0	0	455	0	0	0	0	
11	0	0	0	0	1	456	0	0	0	0	
12	0	0	0	0	0	457	0	0	0	0	
13	0	0	0	0	0	457	0	0	0	0	
14	0	0	0	0	0	458	0	0	0	0	
15	0	0	0	0	0	459	0	0	0	0	
0	0	0	0	0	0	461	0	0	0	0	
1	0	0	0	0	0	462	0	0	0	0	
2	0	0	0	0	0	463	0	0	0	0	
3	0	0	0	0	1	463	0	0	0	0	
4	0	0	0	0	0	465	0	0	0	0	
5	0	0	0	0	0	465	0	0	0	0	
6	0	0	0	0	0	467	0	0	0	0	
7	0	0	0	0	0	467	0	0	0	0	
8	0	0	0	0	0	468	0	0	0	0	
9	0	0	0	0	0	469	0	0	0	0	
10	0	0	0	0	0	471	0	0	0	0	
11	0	0	0	0	1	472	0	0	0	0	
12	0	0	0	0	0	473	0	0	0	0	
13	0	0	0	0	0	475	0	0	0	0	
14	0	0	0	0	0	475	0	0	0	0	
15	0	0	0	0	0	476	0	0	0	0	
0	0	0	0	0	0	477	0	0	0	0	
1	0	0	0	0	0	478	0	0	0	0	
2	0	0	0	0	0	479	0	0	0	0	
3	0	0	0	0	1	480	0	0	0	0	
4	0	0	0	0	0	481	0	0	0	0	
5	0	0	0	0	0	482	0	0	0	0	
6	0	0	0	0	0	483	0	0	0	0	
7	0	0	0	0	0	483	0	0	0	0	
8	0	0	0	0	0	485	0	0	0	0	
9	0	0	0	0	0	486	0	0	0	0	
10	0	0	0	0	0	487	0	0	0	0	
11	0	0	0	0	1	488	0	0	0	0	
12	0	0	0	0	0	489	0	0	0	0	
13	0	0	0	0	0	490	0	0	0	0	
14	0	0	0	0	0	491	0	0	0	0	
15	0	0	0	0	0	490	0	0	0	0	
0	0	0	0	0	0	490	0	0	0	0	
1	0	0	0	0	0	490	0	0	0	0	
2	0	0	0	0	0	490	0	0	0	0	
3	0	0	0	0	1	489	0	0	0	0	
4	0	0	0	0	0	489	0	0	0	0	
5	0	0	0	0	0	489	0	0	0	0	
6	0	0	0	0	0	489	0	0	0	0	
7	0	0	0	0	0	489	0	0	0	0	
8	0	0	0	0	0	489	0	0	0	0	
9	0	0	0	0	0	489	0	0	0	0	
10	0	0	0	0	0	490	0	0	0	0	
11	0	0	0	0	1	490	0	0	0	0	
12	0	0	0	0	0	491	0	0	0	0	
13	0	0	0	0	0	491	0	0	0	0	
14	0	0	0	0	0	492	0	0	0	0	
15	0	0	0	0	0	491	0	0	0	0	
0	0	0	0	0	0	492	0	0	0	0	
1	0	0	0	0	0	493	0	0	0	0	
2	0	0	0	0	0	494	0	0	0	0	
3	0	0	0	0	1	495	0	0	0	0	
4	0	0	0	0	0	495	0	0	0	0	
5	0	0	0	0	0	495	0	0	0	0	
6	0	0	0	0	0	496	0	0	0	0	
7	0	0	0	0	0	496	0	0	0	0	
8	0	0	0	0	0	497	0	0	0	0	
9	0	0	0	0	0	498	0	0	0	0	
10	0	0	0	0	0	498	0	0	0	0	
11	0	0	0	0	1	499	0	0	0	0	
12	0	0	0	0	0	499	0	0	0	0	
13	0	0	0	0	0	500	0	0	0	0	
14	0	0	0	0	0	500	0	0	0	0	
15	0	0	0	0	0	501	0	0	0	0	
0	0	0	0	0	0	501	0	0	0	0	
1	0	0	0	0	0	501	0	0	0	0	
2	0	0	0	0	0	502	0	0	0	0	
3	0	0	0	0	1	503	0	0	0	0	
4	0	0	0	0	0	503	0	0	0	0	
5	0	0	0	0	0	504	0	0	0	0	
6	0	0	0	0	0	505	0	0	0	0	
7	0	0	0	0	0	508	0	0	0	0	
8	0	0	0	0	0	510	0	0	0	0	
9	0	0	0	0	0	512	0	0	0	0	
10	0	0	0	0	0	513	0	0	0	0	
11	0	0	0	0	1	515	0	0	0	0	
12	0	0	0	0	0	517	0	0	0	0	
13	0	0	0	0	0	518	0	0	0	0	
14	0	0	0	0	0	519	0	0	0	0	
15	0	0	0	0	0	520	0	0	0	0	
0	0	0	0	0	0	521	0	0	0	0	
1	0	0	0	0	0	522	0	0	0	0	
2	0	0	0	0	0	524	0	0	0	0	
3	0	0	0	0	1	525	0	0	0	0	
4	0	0	0	0	0	526	0	0	0	0	
5	0	0	0	0	0	526	0	0	0	0	
6	0	0	0	0	0	527	0	0	0	0	
7	0	0	0	0	0	527	0	0	0	0	
8	0	0	0	0	0	528	0	0	0	0	
9	0	0	0	0	0	528	0	0	0	0	
10	0	0	0	0	0	528	0	0	0	0	
11	0	0	0	0	1	529	0	0	0	0	
12	0	0	0	0	0	529	0	0	0	0	
13	0	0	0	0	0	528	0	0	0	0	
14	0	0	0	0	0	528	0	0	0	0	
15	0	0	0	0	0	527	0	0	0	0	
0	0	0	0	0	0	526	0	0	0	0	
1	0	0	0	0	0	525	0	0	0	0	
2	0	0	0	0	0	525	0	0	0	0	
3	0	0	0	0	1	526	0	0	0	0	
4	0	0	0	0	0	526	0	0	0	0	
5	0	0	0	0	0	526	0	0	0	0	
6	0	0	0	0	0	527	0	0	0	0	
7	0	0	0	0	0	527	0	0	0	0	
8	0	0	0	0	0	527	0	0	0	0	
9	0	0	0	0	0	527	0	0	0	0	
10	0	0	0	0	0	527	0	0	0	0	
11	0	0	0	0	1	526	0	0	0	0	
12	0	0	0	0	0	526	0	0	0	0	
13	0	0	0	0	0	526	0	0	0	0	
14	0	0	0	0	0	526	0	0	0	0	
15	0	0	0	0	0	526	0	0	0	0	
0	0	0	0	0	0	525	0	0	0	0	
1	0	0	0	0	0	525	0	0	0	0	
2	0	0	0	0	0	526	0	0	0	0	
3	0	0	0	0	1	526	0	0	0	0	
4	0	0	0	0	0	525	0	0	0	0	
5	0	0	0	0	0	525	0	0	0	0	
6	0	0	0	0	0	525	0	0	0	0	
7	0	0	0	0	0	526	0	0	0	0	
8	0	0	0	0	0	525	0	0	0	0	
9	0	0	0	0	0	524	0	0	0	0	
10	0	0	0	0	0	523	0	0	0	0	
11	0	0	0	0	1	523	0	0	0	0	
12	0	0	0	0	0	523	0	0	0	0	
13	0	0	0	0	0	523	0	0	0	0	
14	0	0	0	0	0	523	0	0	0	0	
15	0	0	0	0	0	522	0	0	0	0	
0	0	0	0	0	0	521	0	0	0	0	
1	0	0	0	0	0	520	0	0	0	0	
2	0	0	0	0	0	519	0	0	0	0	
3	0	0	0	0	1	519	0	0	0	0	
4	0	0	0	0	0	519	0	0	0	0	
5	0	0	0	0	0	518	0	0	0	0	
6	0	0	0	0	0	518	0	0	0	0	
7	0	0	0	0	0	518	0	0	0	0	
8	0	0	0	0	0	518	0	0	0	0	
9	0	0	0	0	0	517	0	0	0	0	
10	0	0	0	0	0	516	0	0	0	0	
11	0	0	0	0	1	516	0	0	0	0	
12	0	0	0	0	0	515	0	0	0	0	
13	0	0	0	0	0	514	0	0	0	0	
14	0	0	0	0	0	513	0	0	0	0	
15	0	0	0	0	0	513	0	0	0	0	
0	0	0	0	0	0	512	0	0	0	0	
1	0	0	0	0	0	511	0	0	0	0	
2	0	0	0	0	0	510	0	0	0	0	
3	0	0	0	0	1	510	0	0	0	0	
4	0	0	0	0	0	508	0	0	0	0	
5	0	0	0	0	0	508	0	0	0	0	
6	0	0	0	0	0	508	0	0	0	0	
7	0	0	0	0	0	507	0	0	0	0	
8	0	0	0	0	0	507	0	0	0	0	
9	0	0	0	0	0	507	0	0	0	0	
10	0	0	0	0	0	506	0	0	0	0	
11	0	0	0	0	1	505	0	0	0	0	
12	0	0	0	0	0	504	0	0	0	0	
13	0	0	0	0	0	504	0	0	0	0	
14	0	0	0	0	0	504	0	0	0	0	
15	0	0	0	0	0	504	0	0	0	0	
0	0	0	0	0	0	503	0	0	0	0	
1	0	0	0	0	0	503	0	0	0	0	
2	0	0	0	0	0	502	0	0	0	0	
3	0	0	0	0	1	502	0	0	0	0	
4	0	0	0	0	0	503	0	0	0	0	
5	0	0	0	0	0	503	0	0	0	0	
6	0	0	0	0	0	504	0	0	0	0	
7	0	0	0	0	0	504	0	0	0	0	
8	0	0	0	0	0	504	0	0	0	0	
9	0	0	0	0	0	504	0	0	0	0	
10	0	0	0	0	0	503	0	0	0	0	
11	0	0	0	0	0	503	0	0	0	0	
12	0	0	0	0	0	503	0	0	0	0	
13	0	0	0	0	0	503	0	0	0	0	
14	0	0	0	0	0	502	0	0	0	0	
15	0	0	0	0	0	502	0	0	0	0	
0	0	0	0	0	0	502	0	0	0	0	
1	0	0	0	0	0	501	0	0	0	0	
2	0	0	0	0	0	501	0	0	0	0	
3	0	0	0	0	0	500	0	0	0	0	
4	0	0	0	0	0	499	0	0	0	0	
5	0	0	0	0	0	499	0	0	0	0	
6	0	0	0	0	0	500	0	0	0	0	
7	0	0	0	0	0	500	0	0	0	0	
8	0	0	0	0	0	501	0	0	0	0	
9	0	0	0	0	0	501	0	0	0	0	
10	0	0	0	0	0	501	0	0	0	0	
11	0	0	0	0	0	500	0	0	0	0	
12	0	0	0	0	0	499	0	0	0	0	
13	0	0	0	0	0	497	0	0	0	0	
14	0	0	0	0	0	496	0	0	0	0	
15	0	0	0	0	0	494	0	0	0	0	
0	0	0	0	0	0	492	0	0	0	0	
1	0	0	0	0	0	491	0	0	0	0	
2	0	0	0	0	0	488	0	0	0	0	
3	0	0	0	0	1	486	0	0	0	0	
4	0	0	0	0	0	485	0	0	0	0	
5	0	0	0	0	0	485	0	0	0	0	
6	0	0	0	0	0	485	0	0	0	0	
7	0	0	0	0	0	486	0	0	0	0	
8	0	0	0	0	0	487	0	0	0	0	
9	0	0	0	0	0	488	0	0	0	0	
10	0	0	0	0	0	489	0	0	0	0	
11	0	0	0	0	1	489	0	0	0	0	
12	0	0	0	0	0	490	0	0	0	0	
13	0	0	0	0	0	490	0	0	0	0	
14	0	0	0	0	0	489	0	0	0	0	
15	0	0	0	0	0	489	0	0	0	0	
0	0	0	0	0	0	489	0	0	0	0	
1	0	0	0	0	0	488	0	0	0	0	
2	0	0	0	0	0	487	0	0	0	0	
3	0	0	0	0	1	486	0	0	0	0	
4	0	0	0	0	0	486	0	0	0	0	
5	0	0	0	0	0	484	0	0	0	0	
6	0	0	0	0	0	483	0	0	0	0	
7	0	0	0	0	0	483	0	0	0	0	
8	0	0	0	0	0	482	0	0	0	0	
9	0	0	0	0	0	481	0	0	0	0	
10	0	0	0	0	0	481	0	0	0	0	
11	0	0	0	0	1	481	0	0	0	0	
12	0	0	0	0	0	480	0	0	0	0	
13	0	0	0	0	0	480	0	0	0	0	
14	0	0	0	0	0	480	0	0	0	0	
15	0	0	0	0	0	477	0	0	0	0	
0	0	0	0	0	0	473	0	0	0	0	
1	0	0	0	0	0	471	0	0	0	0	
2	0	0	0	0	0	470	0	0	0	0	
3	0	0	0	0	1	469	0	0	0	0	
4	0	0	0	0	0	470	0	0	0	0	
5	0	0	0	0	0	469	0	0	0	0	
6	0	0	0	0	0	469	0	0	0	0	
7	0	0	0	0	0	469	0	0	0	0	
8	0	0	0	0	0	468	0	0	0	0	
9	0	0	0	0	0	467	0	0	0	0	
10	0	0	0	0	0	466	0	0	0	0	
11	0	0	0	0	1	466	0	0	0	0	
12	0	0	0	0	0	466	0	0	0	0	
13	0	0	0	0	0	466	0	0	0	0	
14	0	0	0	0	0	465	0	0	0	0	
15	0	0	0	0	0	465	0	0	0	0	
0	0	0	0	0	0	464	0	0	0	0	
1	0	0	0	0	0	463	0	0	0	0	
2	0	0	0	0	0	463	0	0	0	0	
3	0	0	0	0	1	462	0	0	0	0	
4	0	0	0	0	0	462	0	0	0	0	
5	0	0	0	0	0	461	0	0	0	0	
6	0	0	0	0	0	462	0	0	0	0	
7	0	0	0	0	0	462	0	0	0	0	
8	0	0	0	0	0	462	0	0	0	0	
9	0	0	0	0	0	462	0	0	0	0	
10	0	0	0	0	0	462	0	0	0	0	
11	0	0	0	0	1	462	0	0	0	0	
12	0	0	0	0	0	462	0	0	0	0	
13	0	0	0	0	0	461	0	0	0	0	
14	0	0	0	0	0	460	0	0	0	0	
15	0	0	0	0	0	460	0	0	0	0	
0	0	0	0	0	0	460	0	0	0	0	
1	0	0	0	0	0	461	0	0	0	0	
2	0	0	0	0	0	461	0	0	0	0	
3	0	0	0	0	1	462	0	0	0	0	
4	0	0	0	0	0	462	0	0	0	0	
5	0	0	0	0	0	461	0	0	0	0	
6	0	0	0	0	0	461	0	0	0	0	
7	0	0	0	0	0	462	0	0	0	0	
8	0	0	0	0	0	463	0	0	0	0	
9	0	0	0	0	0	463	0	0	0	0	
10	0	0	0	0	0	465	0	0	0	0	
11	0	0	0	0	1	467	0	0	0	0	
12	0	0	0	0	0	467	0	0	0	0	
13	0	0	0	0	0	467	0	0	0	0	
14	0	0	0	0	0	467	0	0	0	0	
15	0	0	0	0	0	467	0	0	0	0	
0	0	0	0	0	0	468	0	0	0	0	
1	0	0	0	0	0	469	0	0	0	0	
2	0	0	0	0	0	468	0	0	0	0	
3	0	0	0	0	1	469	0	0	0	0	
4	0	0	0	0	0	469	0	0	0	0	
5	0	0	0	0	0	468	0	0	0	0	
6	0	0	0	0	0	468	0	0	0	0	
7	0	0	0	0	0	468	0	0	0	0	
8	0	0	0	0	0	467	0	0	0	0	
9	0	0	0	0	0	467	0	0	0	0	
10	0	0	0	0	0	468	0	0	0	0	
11	0	0	0	0	1	468	0	0	0	0	
12	0	0	0	0	0	468	0	0	0	0	
13	0	0	0	0	0	467	0	0	0	0	
14	0	0	0	0	0	466	0	0	0	0	
15	0	0	0	0	0	465	0	0	0	0	
0	0	0	0	0	0	465	0	0	0	0	
1	0	0	0	0	0	465	0	0	0	0	
2	0	0	0	0	0	464	0	0	0	0	
3	0	0	0	0	1	464	0	0	0	0	
4	0	0	0	0	0	465	0	0	0	0	
5	0	0	0	0	0	466	0	0	0	0	
6	0	0	0	0	0	467	0	0	0	0	
7	0	0	0	0	0	467	0	0	0	0	
8	0	0	0	0	0	467	0	0	0	0	
9	0	0	0	0	0	467	0	0	0	0	
10	0	0	0	0	0	467	0	0	0	0	
11	0	0	0	0	1	468	0	0	0	0	
12	0	0	0	0	0	468	0	0	0	0	
13	0	0	0	0	0	469	0	0	0	0	
14	0	0	0	0	0	469	0	0	0	0	
15	0	0	0	0	0	470	0	0	0	0	
0	0	0	0	0	0	470	0	0	0	0	
1	0	0	0	0	0	471	0	0	0	0	
2	0	0	0	0	0	471	0	0	0	0	
3	0	0	0	0	1	472	0	0	0	0	
4	0	0	0	0	0	472	0	0	0	0	
5	0	0	0	0	0	471	0	0	0	0	
6	0	0	0	0	0	471	0	0	0	0	
7	0	0	0	0	0	471	0	0	0	0	
8	0	0	0	0	0	472	0	0	0	0	
9	0	0	0	0	0	472	0	0	0	0	
10	0	0	0	0	0	473	0	0	0	0	
11	0	0	0	0	1	474	0	0	0	0	
12	0	0	0	0	0	475	0	0	0	0	
13	0	0	0	0	0	476	0	0	0	0	
14	0	0	0	0	0	477	0	0	0	0	
15	0	0	0	0	0	478	0	0	0	0	
0	0	0	0	0	0	480	0	0	0	0	
1	0	0	0	0	0	481	0	0	0	0	
2	0	0	0	0	0	483	0	0	0	0	
3	0	0	0	0	1	484	0	0	0	0	
4	0	0	0	0	0	485	0	0	0	0	
5	0	0	0	0	0	485	0	0	0	0	
6	0	0	0	0	0	486	0	0	0	0	
7	0	0	0	0	0	487	0	0	0	0	
8	0	0	0	0	0	486	0	0	0	0	
9	0	0	0	0	0	487	0	0	0	0	
10	0	0	0	0	0	487	0	0	0	0	
11	0	0	0	0	1	487	0	0	0	0	
12	0	0	0	0	0	487	0	0	0	0	
13	0	0	0	0	0	488	0	0	0	0	
14	0	0	0	0	0	489	0	0	0	0	
15	0	0	0	0	0	489	0	0	0	0	
0	0	0	0	0	0	491	0	0	0	0	
1	0	0	0	0	0	490	0	0	0	0	
2	0	0	0	0	0	490	0	0	0	0	
3	0	0	0	0	1	491	0	0	0	0	
4	0	0	0	0	0	492	0	0	0	0	
5	0	0	0	0	0	492	0	0	0	0	
6	0	0	0	0	0	492	0	0	0	0	
7	0	0	0	0	0	493	0	0	0	0	
8	0	0	0	0	0	494	0	0	0	0	
9	0	0	0	0	0	495	0	0	0	0	
10	0	0	0	0	0	496	0	0	0	0	
11	0	0	0	0	1	497	0	0	0	0	
12	0	0	0	0	0	498	0	0	0	0	
13	0	0	0	0	0	499	0	0	0	0	
14	0	0	0	0	0	499	0	0	0	0	
15	0	0	0	0	0	500	0	0	0	0	
0	0	0	0	0	0	501	0	0	0	0	
1	0	0	0	0	0	502	0	0	0	0	
2	0	0	0	0	0	503	0	0	0	0	
3	0	0	0	0	1	504	0	0	0	0	
4	0	0	0	0	0	504	0	0	0	0	
5	0	0	0	0	0	505	0	0	0	0	
6	0	0	0	0	0	507	0	0	0	0	
7	0	0	0	0	0	508	0	0	0	0	
8	0	0	0	0	0	507	0	0	0	0	
9	0	0	0	0	0	507	0	0	0	0	
10	0	0	0	0	0	508	0	0	0	0	
11	0	0	0	0	1	509	0	0	0	0	
12	0	0	0	0	0	508	0	0	0	0	
13	0	0	0	0	0	508	0	0	0	0	
14	0	0	0	0	0	509	0	0	0	0	
15	0	0	0	0	0	509	0	0	0	0	
0	0	0	0	0	0	510	0	0	0	0	
1	0	0	0	0	0	510	0	0	0	0	
2	0	0	0	0	0	511	0	0	0	0	
3	0	0	0	0	1	512	0	0	0	0	
4	0	0	0	0	0	512	0	0	0	0	
5	0	0	0	0	0	512	0	0	0	0	
6	0	0	0	0	0	512	0	0	0	0	
7	0	0	0	0	0	512	0	0	0	0	
8	0	0	0	0	0	513	0	0	0	0	
9	0	0	0	0	0	514	0	0	0	0	
10	0	0	0	0	0	514	0	0	0	0	
11	0	0	0	0	1	515	0	0	0	0	
12	0	0	0	0	0	515	0	0	0	0	
13	0	0	0	0	0	515	0	0	0	0	
14	0	0	0	0	0	515	0	0	0	0	
15	0	0	0	0	0	515	0	0	0	0	
0	0	0	0	0	0	515	0	0	0	0	
1	0	0	0	0	0	516	0	0	0	0	
2	0	0	0	0	0	516	0	0	0	0	
3	0	0	0	0	1	516	0	0	0	0	
4	0	0	0	0	0	517	0	0	0	0	
5	0	0	0	0	0	517	0	0	0	0	
6	0	0	0	0	0	516	0	0	0	0	
7	0	0	0	0	0	516	0	0	0	0	
8	0	0	0	0	0	515	0	0	0	0	
9	0	0	0	0	0	515	0	0	0	0	
10	0	0	0	0	0	515	0	0	0	0	
11	0	0	0	0	0	514	0	0	0	0	
12	0	0	0	0	0	515	0	0	0	0	
13	0	0	0	0	0	515	0	0	0	0	
14	0	0	0	0	0	515	0	0	0	0	
15	0	0	0	0	0	516	0	0	0	0	
0	0	0	0	0	0	516	0	0	0	0	
1	0	0	0	0	0	517	0	0	0	0	
2	0	0	0	0	0	517	0	0	0	0	
3	0	0	0	0	0	518	0	0	0	0	
4	0	0	0	0	0	519	0	0	0	0	
5	0	0	0	0	0	519	0	0	0	0	
6	0	0	0	0	0	519	0	0	0	0	
7	0	0	0	0	0	519	0	0	0	0	
8	0	0	0	0	0	519	0	0	0	0	
9	0	0	0	0	0	520	0	0	0	0	
10	0	0	0	0	0	521	0	0	0	0	
11	0	0	0	0	1	521	0	0	0	0	
12	0	0	0	0	0	521	0	0	0	0	
13	0	0	0	0	0	521	0	0	0	0	
14	0	0	0	0	0	522	0	0	0	0	
15	0	0	0	0	0	521	0	0	0	0	
0	0	0	0	0	0	521	0	0	0	0	
1	0	0	0	0	0	521	0	0	0	0	
2	0	0	0	0	0	521	0	0	0	0	
3	0	0	0	0	1	522	0	0	0	0	
4	0	0	0	0	0	522	0	0	0	0	
5	0	0	0	0	0	523	0	0	0	0	
6	0	0	0	0	0	523	0	0	0	0	
7	0	0	0	0	0	523	0	0	0	0	
8	0	0	0	0	0	523	0	0	0	0	
9	0	0	0	0	0	523	0	0	0	0	
10	0	0	0	0	0	523	0	0	0	0	
11	0	0	0	0	1	523	0	0	0	0	
12	0	0	0	0	0	522	0	0	0	0	
13	0	0	0	0	0	522	0	0	0	0	
14	0	0	0	0	0	523	0	0	0	0	
15	0	0	0	0	0	524	0	0	0	0	
0	0	0	0	0	0	523	0	0	0	0	
1	0	0	0	0	0	523	0	0	0	0	
2	0	0	0	0	0	523	0	0	0	0	
3	0	0	0	0	1	522	0	0	0	0	
4	0	0	0	0	0	522	0	0	0	0	
5	0	0	0	0	0	522	0	0	0	0	
6	0	0	0	0	0	523	0	0	0	0	
7	0	0	0	0	0	522	0	0	0	0	
8	0	0	0	0	0	522	0	0	0	0	
9	0	0	0	0	0	523	0	0	0	0	
10	0	0	0	0	0	522	0	0	0	0	
11	0	0	0	0	1	523	0	0	0	0	
12	0	0	0	0	0	523	0	0	0	0	
13	0	0	0	0	0	522	0	0	0	0	
14	0	0	0	0	0	521	0	0	0	0	
15	0	0	0	0	0	521	0	0	0	0	
0	0	0	0	0	0	522	0	0	0	0	
1	0	0	0	0	0	523	0	0	0	0	
2	0	0	0	0	0	523	0	0	0	0	
3	0	0	0	0	1	523	0	0	0	0	
4	0	0	0	0	0	523	0	0	0	0	
5	0	0	0	0	0	524	0	0	0	0	
6	0	0	0	0	0	525	0	0	0	0	
7	0	0	0	0	0	526	0	0	0	0	
8	0	0	0	0	0	527	0	0	0	0	
9	0	0	0	0	0	528	0	0	0	0	
10	0	0	0	0	0	529	0	0	0	0	
11	0	0	0	0	1	530	0	0	0	0	
12	0	0	0	0	0	530	0	0	0	0	
13	0	0	0	0	0	530	0	0	0	0	
14	0	0	0	0	0	531	0	0	0	0	
15	0	0	0	0	0	532	0	0	0	0	
0	0	0	0	0	0	531	0	0	0	0	
1	0	0	0	0	0	532	0	0	0	0	
2	0	0	0	0	0	532	0	0	0	0	
3	0	0	0	0	1	533	0	0	0	0	
4	0	0	0	0	0	533	0	0	0	0	
5	0	0	0	0	0	534	0	0	0	0	
6	0	0	0	0	0	534	0	0	0	0	
7	0	0	0	0	0	535	0	0	0	0	
8	0	0	0	0	0	537	0	0	0	0	
9	0	0	0	0	0	538	0	0	0	0	
10	0	0	0	0	0	539	0	0	0	0	
11	0	0	0	0	1	539	0	0	0	0	
12	0	0	0	0	0	539	0	0	0	0	
13	0	0	0	0	0	538	0	0	0	0	
14	0	0	0	0	0	539	0	0	0	0	
15	0	0	0	0	0	538	0	0	0	0	
0	0	0	0	0	0	538	0	0	0	0	
1	0	0	0	0	0	538	0	0	0	0	
2	0	0	0	0	0	536	0	0	0	0	
3	0	0	0	0	1	536	0	0	0	0	
4	0	0	0	0	0	534	0	0	0	0	
5	0	0	0	0	0	532	0	0	0	0	
6	0	0	0	0	0	531	0	0	0	0	
7	0	0	0	0	0	532	0	0	0	0	
8	0	0	0	0	0	531	0	0	0	0	
9	0	0	0	0	0	533	0	0	0	0	
10	0	0	0	0	0	534	0	0	0	0	
11	0	0	0	0	1	535	0	0	0	0	
12	0	0	0	0	0	536	0	0	0	0	
13	0	0	0	0	0	537	0	0	0	0	
14	0	0	0	0	0	540	0	0	0	0	
15	0	0	0	0	0	542	0	0	0	0	
0	0	0	0	0	0	543	0	0	0	0	
1	0	0	0	0	0	544	0	0	0	0	
2	0	0	0	0	0	545	0	0	0	0	
3	0	0	0	0	1	546	0	0	0	0	
4	0	0	0	0	0	546	0	0	0	0	
5	0	0	0	0	0	547	0	0	0	0	
6	0	0	0	0	0	548	0	0	0	0	
7	0	0	0	0	0	549	0	0	0	0	
8	0	0	0	0	0	548	0	0	0	0	
9	0	0	0	0	0	548	0	0	0	0	
10	0	0	0	0	0	546	0	0	0	0	
11	0	0	0	0	1	543	0	0	0	0	
12	0	0	0	0	0	541	0	0	0	0	
13	0	0	0	0	0	539	0	0	0	0	
14	0	0	0	0	0	537	0	0	0	0	
15	0	0	0	0	0	536	0	0	0	0	
0	0	0	0	0	0	537	0	0	0	0	
1	0	0	0	0	0	537	0	0	0	0	
2	0	0	0	0	0	537	0	0	0	0	
3	0	0	0	0	1	538	0	0	0	0	
4	0	0	0	0	0	540	0	0	0	0	
5	0	0	0	0	0	540	0	0	0	0	
6	0	0	0	0	0	541	0	0	0	0	
7	0	0	0	0	0	542	0	0	0	0	
8	0	0	0	0	0	542	0	0	0	0	
9	0	0	0	0	0	542	0	0	0	0	
10	0	0	0	0	0	542	0	0	0	0	
11	0	0	0	0	1	540	0	0	0	0	
12	0	0	0	0	0	539	0	0	0	0	
13	0	0	0	0	0	539	0	0	0	0	
14	0	0	0	0	0	538	0	0	0	0	
15	0	0	0	0	0	538	0	0	0	0	
0	0	0	0	0	0	537	0	0	0	0	
1	0	0	0	0	0	536	0	0	0	0	
2	0	0	0	0	0	535	0	0	0	0	
3	0	0	0	0	1	534	0	0	0	0	
4	0	0	0	0	0	533	0	0	0	0	
5	0	0	0	0	0	532	0	0	0	0	
6	0	0	0	0	0	531	0	0	0	0	
7	0	0	0	0	0	529	0	0	0	0	
8	0	0	0	0	0	526	0	0	0	0	
9	0	0	0	0	0	523	0	0	0	0	
10	0	0	0	0	0	519	0	0	0	0	
11	0	0	0	0	1	517	0	0	0	0	
12	0	0	0	0	0	516	0	0	0	0	
13	0	0	0	0	0	515	0	0	0	0	
14	0	0	0	0	0	513	0	0	0	0	
15	0	0	0	0	0	512	0	0	0	0	
0	0	0	0	0	0	511	0	0	0	0	
1	0	0	0	0	0	509	0	0	0	0	
2	0	0	0	0	0	508	0	0	0	0	
3	0	0	0	0	1	508	0	0	0	0	
4	0	0	0	0	0	507	0	0	0	0	
5	0	0	0	0	0	506	0	0	0	0	
6	0	0	0	0	0	505	0	0	0	0	
7	0	0	0	0	0	504	0	0	0	0	
8	0	0	0	0	0	503	0	0	0	0	
9	0	0	0	0	0	502	0	0	0	0	
10	0	0	0	0	0	501	0	0	0	0	
11	0	0	0	0	1	501	0	0	0	0	
12	0	0	0	0	0	500	0	0	0	0	
13	0	0	0	0	0	499	0	0	0	0	
14	0	0	0	0	0	499	0	0	0	0	
15	0	0	0	0	0	498	0	0	0	0	
0	0	0	0	0	0	498	0	0	0	0	
1	0	0	0	0	0	499	0	0	0	0	
2	0	0	0	0	0	499	0	0	0	0	
3	0	0	0	0	1	499	0	0	0	0	
4	0	0	0	0	0	499	0	0	0	0	
5	0	0	0	0	0	499	0	0	0	0	
6	0	0	0	0	0	500	0	0	0	0	
7	0	0	0	0	0	501	0	0	0	0	
8	0	0	0	0	0	501	0	0	0	0	
9	0	0	0	0	0	502	0	0	0	0	
10	0	0	0	0	0	502	0	0	0	0	
11	0	0	0	0	1	503	0	0	0	0	
12	0	0	0	0	0	504	0	0	0	0	
13	0	0	0	0	0	504	0	0	0	0	
14	0	0	0	0	0	504	0	0	0	0	
15	0	0	0	0	0	505	0	0	0	0	
0	0	0	0	0	0	506	0	0	0	0	
1	0	0	0	0	0	507	0	0	0	0	
2	0	0	0	0	0	507	0	0	0	0	
3	0	0	0	0	1	506	0	0	0	0	
4	0	0	0	0	0	505	0	0	0	0	
5	0	0	0	0	0	505	0	0	0	0	
6	0	0	0	0	0	506	0	0	0	0	
7	0	0	0	0	0	507	0	0	0	0	
8	0	0	0	0	0	508	0	0	0	0	
9	0	0	0	0	0	507	0	0	0	0	
10	0	0	0	0	0	507	0	0	0	0	
11	0	0	0	0	1	507	0	0	0	0	
12	0	0	0	0	0	508	0	0	0	0	
13	0	0	0	0	0	508	0	0	0	0	
14	0	0	0	0	0	508	0	0	0	0	
15	0	0	0	0	0	508	0	0	0	0	
0	0	0	0	0	0	507	0	0	0	0	
1	0	0	0	0	0	508	0	0	0	0	
2	0	0	0	0	0	508	0	0	0	0	
3	0	0	0	0	1	508	0	0	0	0	
4	0	0	0	0	0	509	0	0	0	0	
5	0	0	0	0	0	509	0	0	0	0	
6	0	0	0	0	0	510	0	0	0	0	
7	0	0	0	0	0	510	0	0	0	0	
8	0	0	0	0	0	511	0	0	0	0	
9	0	0	0	0	0	512	0	0	0	0	
10	0	0	0	0	0	512	0	0	0	0	
11	0	0	0	0	1	513	0	0	0	0	
12	0	0	0	0	0	514	0	0	0	0	
13	0	0	0	0	0	515	0	0	0	0	
14	0	0	0	0	0	515	0	0	0	0	
15	0	0	0	0	0	515	0	0	0	0	
0	0	0	0	0	0	515	0	0	0	0	
1	0	0	0	0	0	516	0	0	0	0	
2	0	0	0	0	0	515	0	0	0	0	
3	0	0	0	0	0	515	0	0	0	0	
4	0	0	0	0	0	513	0	0	0	0	
5	0	0	0	0	0	511	0	0	0	0	
6	0	0	0	0	0	507	0	0	0	0	
7	0	0	0	0	0	504	0	0	0	0	
8	0	0	0	0	0	502	0	0	0	0	
9	0	0	0	0	0	499	0	0	0	0	
10	0	0	0	0	0	497	0	0	0	0	
11	0	0	0	0	0	496	0	0	0	0	
12	0	0	0	0	0	494	0	0	0	0	
13	0	0	0	0	0	495	0	0	0	0	
14	0	0	0	0	0	497	0	0	0	0	
15	0	0	0	0	0	502	0	0	0	0	
0	0	0	0	0	0	507	0	0	0	0	
1	0	0	0	0	0	514	0	0	0	0	
2	0	0	0	0	0	523	0	0	0	0	
3	0	0	0	0	0	533	0	0	0	0	
4	0	0	0	0	0	544	0	0	0	0	
5	0	0	0	0	0	556	0	0	0	0	
6	0	0	0	0	0	570	0	0	0	0	
7	0	0	0	0	0	583	0	0	0	0	
8	0	0	0	0	0	595	0	0	0	0	
9	0	0	0	0	0	608	0	0	0	0	
10	0	0	0	0	0	619	0	0	0	0	
11	0	0	0	0	1	633	0	0	0	0	
12	0	0	0	0	0	647	1	0	0	0	
13	0	0	0	0	0	663	1	0	0	0	
14	0	0	0	0	0	678	1	0	0	0	
15	0	0	0	0	0	693	1	0	0	0	
0	0	0	0	0	0	710	1	0	0	0	
1	0	0	0	0	0	732	1	0	0	0	
2	0	0	0	0	0	754	1	0	0	0	
3	0	0	0	0	1	775	1	0	0	0	
4	0	0	0	0	0	799	1	0	0	0	
5	0	0	0	0	0	823	2	0	0	0	
6	0	0	0	0	0	848	2	0	0	0	
7	0	0	0	0	0	873	2	0	0	0	
8	0	0	0	0	0	896	2	0	0	0	
9	0	0	0	0	0	916	2	0	0	0	
10	0	0	0	0	0	933	2	0	0	0	
11	0	0	0	0	1	948	2	0	0	0	
12	0	0	0	0	0	961	3	0	0	0	
13	0	0	0	0	0	971	3	0	0	0	
14	0	0	0	0	0	975	3	0	0	0	
15	0	0	0	0	0	968	3	0	0	0	
0	0	0	0	0	0	951	2	0	0	0	
1	0	0	0	0	0	930	2	0	0	0	
2	0	0	0	0	0	903	2	0	0	0	
3	0	0	0	0	1	871	2	0	0	0	
4	0	0	0	0	0	833	1	0	0	0	
5	0	0	0	0	0	792	1	0	0	0	
6	0	0	0	0	0	747	1	0	0	0	
7	0	0	0	0	0	705	1	0	0	0	
8	0	0	0	0	0	666	1	0	0	0	
9	0	0	0	0	0	631	0	0	0	0	
10	0	0	0	0	0	601	0	0	0	0	
11	0	0	0	0	1	574	0	0	0	0	
12	0	0	0	0	0	549	0	0	0	0	
13	0	0	0	0	0	528	0	0	0	0	
14	0	0	0	0	0	511	0	0	0	0	
15	0	0	0	0	0	497	0	0	0	0	
0	0	0	0	0	0	484	0	0	0	0	
1	0	0	0	0	0	472	0	0	0	0	
2	0	0	0	0	0	460	0	0	0	0	
3	0	0	0	0	1	448	0	0	0	0	
4	0	0	0	0	0	438	0	0	0	0	
5	0	0	0	0	0	427	0	0	0	0	
6	0	0	0	0	0	418	0	0	0	0	
7	0	0	0	0	0	409	0	0	0	0	
8	0	0	0	0	0	399	0	0	0	0	
9	0	0	0	0	0	390	0	0	0	0	
10	0	0	0	0	0	380	0	0	0	0	
11	0	0	0	0	1	369	0	0	0	0	
12	0	0	0	0	0	359	0	0	0	0	
13	0	0	0	0	0	350	0	0	0	0	
14	0	0	0	0	0	343	0	0	0	0	
15	0	0	0	0	0	337	0	0	0	0	
0	0	0	0	0	0	335	0	0	0	0	
1	0	0	0	0	0	336	0	0	0	0	
2	0	0	0	0	0	338	0	0	0	0	
3	0	0	0	0	1	344	0	0	0	0	
4	0	0	0	0	0	351	0	0	0	0	
5	0	0	0	0	0	358	0	0	0	0	
6	0	0	0	0	0	367	0	0	0	0	
7	0	0	0	0	0	374	0	0	0	0	
8	0	0	0	0	0	382	0	0	0	0	
9	0	0	0	0	0	388	0	0	0	0	
10	0	0	0	0	0	394	0	0	0	0	
11	0	0	0	0	1	400	0	0	0	0	
12	0	0	0	0	0	406	0	0	0	0	
13	0	0	0	0	0	413	0	0	0	0	
14	0	0	0	0	0	420	0	0	0	0	
15	0	0	0	0	0	427	0	0	0	0	
0	0	0	0	0	0	433	0	0	0	0	
1	0	0	0	0	0	438	0	0	0	0	
2	0	0	0	0	0	443	0	0	0	0	
3	0	0	0	0	1	446	0	0	0	0	
4	0	0	0	0	0	448	0	0	0	0	
5	0	0	0	0	0	450	0	0	0	0	
6	0	0	0	0	0	452	0	0	0	0	
7	0	0	0	0	0	454	0	0	0	0	
8	0	0	0	0	0	457	0	0	0	0	
9	0	0	0	0	0	459	0	0	0	0	
10	0	0	0	0	0	460	0	0	0	0	
11	0	0	0	0	1	462	0	0	0	0	
12	0	0	0	0	0	464	0	0	0	0	
13	0	0	0	0	0	465	0	0	0	0	
14	0	0	0	0	0	467	0	0	0	0	
15	0	0	0	0	0	468	0	0	0	0	
0	0	0	0	0	0	469	0	0	0	0	
1	0	0	0	0	0	470	0	0	0	0	
2	0	0	0	0	0	471	0	0	0	0	
3	0	0	0	0	1	472	0	0	0	0	
4	0	0	0	0	0	474	0	0	0	0	
5	0	0	0	0	0	476	0	0	0	0	
6	0	0	0	0	0	476	0	0	0	0	
7	0	0	0	0	0	475	0	0	0	0	
8	0	0	0	0	0	476	0	0	0	0	
9	0	0	0	0	0	478	0	0	0	0	
10	0	0	0	0	0	478	0	0	0	0	
11	0	0	0	0	1	479	0	0	0	0	
12	0	0	0	0	0	480	0	0	0	0	
13	0	0	0	0	0	480	0	0	0	0	
14	0	0	0	0	0	481	0	0	0	0	
15	0	0	0	0	0	482	0	0	0	0	
0	0	0	0	0	0	483	0	0	0	0	
1	0	0	0	0	0	483	0	0	0	0	
2	0	0	0	0	0	483	0	0	0	0	
3	0	0	0	0	1	484	0	0	0	0	
4	0	0	0	0	0	485	0	0	0	0	
5	0	0	0	0	0	486	0	0	0	0	
6	0	0	0	0	0	485	0	0	0	0	
7	0	0	0	0	0	487	0	0	0	0	
8	0	0	0	0	0	488	0	0	0	0	
9	0	0	0	0	0	489	0	0	0	0	
10	0	0	0	0	0	490	0	0	0	0	
11	0	0	0	0	1	490	0	0	0	0	
12	0	0	0	0	0	491	0	0	0	0	
13	0	0	0	0	0	492	0	0	0	0	
14	0	0	0	0	0	494	0	0	0	0	
15	0	0	0	0	0	495	0	0	0	0	
0	0	0	0	0	0	496	0	0	0	0	
1	0	0	0	0	0	496	0	0	0	0	
2	0	0	0	0	0	497	0	0	0	0	
3	0	0	0	0	1	498	0	0	0	0	
4	0	0	0	0	0	499	0	0	0	0	
5	0	0	0	0	0	500	0	0	0	0	
6	0	0	0	0	0	501	0	0	0	0	
7	0	0	0	0	0	502	0	0	0	0	
8	0	0	0	0	0	502	0	0	0	0	
9	0	0	0	0	0	502	0	0	0	0	
10	0	0	0	0	0	502	0	0	0	0	
11	0	0	0	0	1	502	0	0	0	0	
12	0	0	0	0	0	502	0	0	0	0	
13	0	0	0	0	0	502	0	0	0	0	
14	0	0	0	0	0	502	0	0	0	0	
15	0	0	0	0	0	503	0	0	0	0	
0	0	0	0	0	0	505	0	0	0	0	
1	0	0	0	0	0	507	0	0	0	0	
2	0	0	0	0	0	507	0	0	0	0	
3	0	0	0	0	1	508	0	0	0	0	
4	0	0	0	0	0	509	0	0	0	0	
5	0	0	0	0	0	509	0	0	0	0	
6	0	0	0	0	0	510	0	0	0	0	
7	0	0	0	0	0	510	0	0	0	0	
8	0	0	0	0	0	510	0	0	0	0	
9	0	0	0	0	0	510	0	0	0	0	
10	0	0	0	0	0	510	0	0	0	0	
11	0	0	0	0	1	510	0	0	0	0	
12	0	0	0	0	0	511	0	0	0	0	
13	0	0	0	0	0	511	0	0	0	0	
14	0	0	0	0	0	511	0	0	0	0	
15	0	0	0	0	0	512	0	0	0	0	
0	0	0	0	0	0	513	0	0	0	0	
1	0	0	0	0	0	514	0	0	0	0	
2	0	0	0	0	0	515	0	0	0	0	
3	0	0	0	0	1	515	0	0	0	0	
4	0	0	0	0	0	514	0	0	0	0	
5	0	0	0	0	0	515	0	0	0	0	
6	0	0	0	0	0	516	0	0	0	0	
7	0	0	0	0	0	518	0	0	0	0	
8	0	0	0	0	0	518	0	0	0	0	
9	0	0	0	0	0	518	0	0	0	0	
10	0	0	0	0	0	518	0	0	0	0	
11	0	0	0	0	1	519	0	0	0	0	
12	0	0	0	0	0	519	0	0	0	0	
13	0	0	0	0	0	518	0	0	0	0	
14	0	0	0	0	0	518	0	0	0	0	
15	0	0	0	0	0	517	0	0	0	0	
0	0	0	0	0	0	516	0	0	0	0	
1	0	0	0	0	0	515	0	0	0	0	
2	0	0	0	0	0	516	0	0	0	0	
3	0	0	0	0	1	517	0	0	0	0	
4	0	0	0	0	0	518	0	0	0	0	
5	0	0	0	0	0	519	0	0	0	0	
6	0	0	0	0	0	519	0	0	0	0	
7	0	0	0	0	0	520	0	0	0	0	
8	0	0	0	0	0	522	0	0	0	0	
9	0	0	0	0	0	523	0	0	0	0	
10	0	0	0	0	0	523	0	0	0	0	
11	0	0	0	0	1	523	0	0	0	0	
12	0	0	0	0	0	523	0	0	0	0	
13	0	0	0	0	0	524	0	0	0	0	
14	0	0	0	0	0	524	0	0	0	0	
15	0	0	0	0	0	524	0	0	0	0	
0	0	0	0	0	0	525	0	0	0	0	
1	0	0	0	0	0	524	0	0	0	0	
2	0	0	0	0	0	524	0	0	0	0	
3	0	0	0	0	1	524	0	0	0	0	
4	0	0	0	0	0	524	0	0	0	0	
5	0	0	0	0	0	525	0	0	0	0	
6	0	0	0	0	0	524	0	0	0	0	
7	0	0	0	0	0	526	0	0	0	0	
8	0	0	0	0	0	526	0	0	0	0	
9	0	0	0	0	0	526	0	0	0	0	
10	0	0	0	0	0	526	0	0	0	0	
11	0	0	0	0	0	526	0	0	0	0	
12	0	0	0	0	0	527	0	0	0	0	
13	0	0	0	0	0	527	0	0	0	0	
14	0	0	0	0	0	527	0	0	0	0	
15	0	0	0	0	0	528	0	0	0	0	
0	0	0	0	0	0	529	0	0	0	0	
1	0	0	0	0	0	528	0	0	0	0	
2	0	0	0	0	0	528	0	0	0	0	
3	0	0	0	0	0	528	0	0	0	0	
4	0	0	0	0	0	529	0	0	0	0	
5	0	0	0	0	0	529	0	0	0	0	
6	0	0	0	0	0	528	0	0	0	0	
7	0	0	0	0	0	526	0	0	0	0	
8	0	0	0	0	0	526	0	0	0	0	
9	0	0	0	0	0	526	0	0	0	0	
10	0	0	0	0	0	525	0	0	0	0	
11	0	0	0	0	0	526	0	0	0	0	
12	0	0	0	0	0	526	0	0	0	0	
13	0	0	0	0	0	527	0	0	0	0	
14	0	0	0	0	0	528	0	0	0	0	
15	0	0	0	0	0	529	0	0	0	0	
0	0	0	0	0	0	529	0	0	0	0	
1	0	0	0	0	0	529	0	0	0	0	
2	0	0	0	0	0	527	0	0	0	0	
3	0	0	0	0	1	525	0	0	0	0	
4	0	0	0	0	0	524	0	0	0	0	
5	0	0	0	0	0	523	0	0	0	0	
6	0	0	0	0	0	521	0	0	0	0	
7	0	0	0	0	0	520	0	0	0	0	
8	0	0	0	0	0	519	0	0	0	0	
9	0	0	0	0	0	518	0	0	0	0	
10	0	0	0	0	0	517	0	0	0	0	
11	0	0	0	0	1	516	0	0	0	0	
12	0	0	0	0	0	516	0	0	0	0	
13	0	0	0	0	0	516	0	0	0	0	
14	0	0	0	0	0	516	0	0	0	0	
15	0	0	0	0	0	515	0	0	0	0	
0	0	0	0	0	0	516	0	0	0	0	
1	0	0	0	0	0	518	0	0	0	0	
2	0	0	0	0	0	520	0	0	0	0	
3	0	0	0	0	1	521	0	0	0	0	
4	0	0	0	0	0	521	0	0	0	0	
5	0	0	0	0	0	522	0	0	0	0	
6	0	0	0	0	0	523	0	0	0	0	
7	0	0	0	0	0	523	0	0	0	0	
8	0	0	0	0	0	524	0	0	0	0	
9	0	0	0	0	0	525	0	0	0	0	
10	0	0	0	0	0	524	0	0	0	0	
11	0	0	0	0	1	524	0	0	0	0	
12	0	0	0	0	0	523	0	0	0	0	
13	0	0	0	0	0	522	0	0	0	0	
14	0	0	0	0	0	521	0	0	0	0	
15	0	0	0	0	0	521	0	0	0	0	
0	0	0	0	0	0	520	0	0	0	0	
1	0	0	0	0	0	521	0	0	0	0	
2	0	0	0	0	0	521	0	0	0	0	
3	0	0	0	0	1	522	0	0	0	0	
4	0	0	0	0	0	523	0	0	0	0	
5	0	0	0	0	0	523	0	0	0	0	
6	0	0	0	0	0	524	0	0	0	0	
7	0	0	0	0	0	525	0	0	0	0	
8	0	0	0	0	0	525	0	0	0	0	
9	0	0	0	0	0	526	0	0	0	0	
10	0	0	0	0	0	526	0	0	0	0	
11	0	0	0	0	1	526	0	0	0	0	
12	0	0	0	0	0	527	0	0	0	0	
13	0	0	0	0	0	527	0	0	0	0	
14	0	0	0	0	0	527	0	0	0	0	
15	0	0	0	0	0	527	0	0	0	0	
0	0	0	0	0	0	524	0	0	0	0	
1	0	0	0	0	0	522	0	0	0	0	
2	0	0	0	0	0	522	0	0	0	0	
3	0	0	0	0	1	520	0	0	0	0	
4	0	0	0	0	0	520	0	0	0	0	
5	0	0	0	0	0	519	0	0	0	0	
6	0	0	0	0	0	519	0	0	0	0	
7	0	0	0	0	0	519	0	0	0	0	
8	0	0	0	0	0	519	0	0	0	0	
9	0	0	0	0	0	518	0	0	0	0	
10	0	0	0	0	0	518	0	0	0	0	
11	0	0	0	0	1	518	0	0	0	0	
12	0	0	0	0	0	519	0	0	0	0	
13	0	0	0	0	0	519	0	0	0	0	
14	0	0	0	0	0	518	0	0	0	0	
15	0	0	0	0	0	519	0	0	0	0	
0	0	0	0	0	0	518	0	0	0	0	
1	0	0	0	0	0	516	0	0	0	0	
2	0	0	0	0	0	516	0	0	0	0	
3	0	0	0	0	1	517	0	0	0	0	
4	0	0	0	0	0	518	0	0	0	0	
5	0	0	0	0	0	519	0	0	0	0	
6	0	0	0	0	0	519	0	0	0	0	
7	0	0	0	0	0	519	0	0	0	0	
8	0	0	0	0	0	518	0	0	0	0	
9	0	0	0	0	0	518	0	0	0	0	
10	0	0	0	0	0	518	0	0	0	0	
11	0	0	0	0	1	517	0	0	0	0	
12	0	0	0	0	0	517	0	0	0	0	
13	0	0	0	0	0	517	0	0	0	0	
14	0	0	0	0	0	516	0	0	0	0	
15	0	0	0	0	0	516	0	0	0	0	
0	0	0	0	0	0	515	0	0	0	0	
1	0	0	0	0	0	515	0	0	0	0	
2	0	0	0	0	0	516	0	0	0	0	
3	0	0	0	0	1	516	0	0	0	0	
4	0	0	0	0	0	515	0	0	0	0	
5	0	0	0	0	0	515	0	0	0	0	
6	0	0	0	0	0	515	0	0	0	0	
7	0	0	0	0	0	514	0	0	0	0	
8	0	0	0	0	0	514	0	0	0	0	
9	0	0	0	0	0	514	0	0	0	0	
10	0	0	0	0	0	513	0	0	0	0	
11	0	0	0	0	1	513	0	0	0	0	
12	0	0	0	0	0	512	0	0	0	0	
13	0	0	0	0	0	512	0	0	0	0	
14	0	0	0	0	0	512	0	0	0	0	
15	0	0	0	0	0	511	0	0	0	0	
0	0	0	0	0	0	510	0	0	0	0	
1	0	0	0	0	0	508	0	0	0	0	
2	0	0	0	0	0	508	0	0	0	0	
3	0	0	0	0	1	506	0	0	0	0	
4	0	0	0	0	0	505	0	0	0	0	
5	0	0	0	0	0	503	0	0	0	0	
6	0	0	0	0	0	502	0	0	0	0	
7	0	0	0	0	0	502	0	0	0	0	
8	0	0	0	0	0	500	0	0	0	0	
9	0	0	0	0	0	500	0	0	0	0	
10	0	0	0	0	0	499	0	0	0	0	
11	0	0	0	0	1	497	0	0	0	0	
12	0	0	0	0	0	497	0	0	0	0	
13	0	0	0	0	0	497	0	0	0	0	
14	0	0	0	0	0	495	0	0	0	0	
15	0	0	0	0	0	494	0	0	0	0	
0	0	0	0	0	0	493	0	0	0	0	
1	0	0	0	0	0	492	0	0	0	0	
2	0	0	0	0	0	492	0	0	0	0	
3	0	0	0	0	1	491	0	0	0	0	
4	0	0	0	0	0	489	0	0	0	0	
5	0	0	0	0	0	489	0	0	0	0	
6	0	0	0	0	0	488	0	0	0	0	
7	0	0	0	0	0	488	0	0	0	0	
8	0	0	0	0	0	488	0	0	0	0	
9	0	0	0	0	0	488	0	0	0	0	
10	0	0	0	0	0	488	0	0	0	0	
11	0	0	0	0	1	488	0	0	0	0	
12	0	0	0	0	0	488	0	0	0	0	
13	0	0	0	0	0	487	0	0	0	0	
14	0	0	0	0	0	487	0	0	0	0	
15	0	0	0	0	0	488	0	0	0	0	
0	0	0	0	0	0	488	0	0	0	0	
1	0	0	0	0	0	488	0	0	0	0	
2	0	0	0	0	0	487	0	0	0	0	
3	0	0	0	0	1	486	0	0	0	0	
4	0	0	0	0	0	485	0	0	0	0	
5	0	0	0	0	0	483	0	0	0	0	
6	0	0	0	0	0	483	0	0	0	0	
7	0	0	0	0	0	483	0	0	0	0	
8	0	0	0	0	0	483	0	0	0	0	
9	0	0	0	0	0	484	0	0	0	0	
10	0	0	0	0	0	485	0	0	0	0	
11	0	0	0	0	1	486	0	0	0	0	
12	0	0	0	0	0	487	0	0	0	0	
13	0	0	0	0	0	488	0	0	0	0	
14	0	0	0	0	0	489	0	0	0	0	
15	0	0	0	0	0	489	0	0	0	0	
0	0	0	0	0	0	489	0	0	0	0	
1	0	0	0	0	0	489	0	0	0	0	
2	0	0	0	0	0	489	0	0	0	0	
3	0	0	0	0	1	487	0	0	0	0	
4	0	0	0	0	0	486	0	0	0	0	
5	0	0	0	0	0	484	0	0	0	0	
6	0	0	0	0	0	484	0	0	0	0	
7	0	0	0	0	0	483	0	0	0	0	
8	0	0	0	0	0	482	0	0	0	0	
9	0	0	0	0	0	483	0	0	0	0	
10	0	0	0	0	0	484	0	0	0	0	
11	0	0	0	0	1	483	0	0	0	0	
12	0	0	0	0	0	483	0	0	0	0	
13	0	0	0	0	0	483	0	0	0	0	
14	0	0	0	0	0	484	0	0	0	0	
15	0	0	0	0	0	485	0	0	0	0	
0	0	0	0	0	0	486	0	0	0	0	
1	0	0	0	0	0	487	0	0	0	0	
2	0	0	0	0	0	489	0	0	0	0	
3	0	0	0	0	1	492	0	0	0	0	
4	0	0	0	0	0	495	0	0	0	0	
5	0	0	0	0	0	496	0	0	0	0	
6	0	0	0	0	0	496	0	0	0	0	
7	0	0	0	0	0	496	0	0	0	0	
8	0	0	0	0	0	497	0	0	0	0	
9	0	0	0	0	0	497	0	0	0	0	
10	0	0	0	0	0	498	0	0	0	0	
11	0	0	0	0	1	498	0	0	0	0	
12	0	0	0	0	0	498	0	0	0	0	
13	0	0	0	0	0	498	0	0	0	0	
14	0	0	0	0	0	497	0	0	0	0	
15	0	0	0	0	0	499	0	0	0	0	
0	0	0	0	0	0	499	0	0	0	0	
1	0	0	0	0	0	499	0	0	0	0	
2	0	0	0	0	0	500	0	0	0	0	
3	0	0	0	0	1	500	0	0	0	0	
4	0	0	0	0	0	500	0	0	0	0	
5	0	0	0	0	0	500	0	0	0	0	
6	0	0	0	0	0	500	0	0	0	0	
7	0	0	0	0	0	500	0	0	0	0	
8	0	0	0	0	0	500	0	0	0	0	
9	0	0	0	0	0	501	0	0	0	0	
10	0	0	0	0	0	502	0	0	0	0	
11	0	0	0	0	1	503	0	0	0	0	
12	0	0	0	0	0	504	0	0	0	0	
13	0	0	0	0	0	504	0	0	0	0	
14	0	0	0	0	0	504	0	0	0	0	
15	0	0	0	0	0	505	0	0	0	0	
0	0	0	0	0	0	504	0	0	0	0	
1	0	0	0	0	0	504	0	0	0	0	
2	0	0	0	0	0	504	0	0	0	0	
3	0	0	0	0	1	503	0	0	0	0	
4	0	0	0	0	0	504	0	0	0	0	
5	0	0	0	0	0	504	0	0	0	0	
6	0	0	0	0	0	505	0	0	0	0	
7	0	0	0	0	0	505	0	0	0	0	
8	0	0	0	0	0	505	0	0	0	0	
9	0	0	0	0	0	507	0	0	0	0	
10	0	0	0	0	0	506	0	0	0	0	
11	0	0	0	0	0	505	0	0	0	0	
12	0	0	0	0	0	504	0	0	0	0	
13	0	0	0	0	0	505	0	0	0	0	
14	0	0	0	0	0	505	0	0	0	0	
15	0	0	0	0	0	505	0	0	0	0	
0	0	0	0	0	0	506	0	0	0	0	
1	0	0	0	0	0	507	0	0	0	0	
2	0	0	0	0	0	507	0	0	0	0	
3	0	0	0	0	0	507	0	0	0	0	
4	0	0	0	0	0	508	0	0	0	0	
5	0	0	0	0	0	508	0	0	0	0	
6	0	0	0	0	0	508	0	0	0	0	
7	0	0	0	0	0	507	0	0	0	0	
8	0	0	0	0	0	507	0	0	0	0	
9	0	0	0	0	0	507	0	0	0	0	
10	0	0	0	0	0	508	0	0	0	0	
11	0	0	0	0	1	508	0	0	0	0	
12	0	0	0	0	0	508	0	0	0	0	
13	0	0	0	0	0	509	0	0	0	0	
14	0	0	0	0	0	509	0	0	0	0	
15	0	0	0	0	0	508	0	0	0	0	
0	0	0	0	0	0	508	0	0	0	0	
1	0	0	0	0	0	507	0	0	0	0	
2	0	0	0	0	0	508	0	0	0	0	
3	0	0	0	0	1	507	0	0	0	0	
4	0	0	0	0	0	507	0	0	0	0	
5	0	0	0	0	0	507	0	0	0	0	
6	0	0	0	0	0	508	0	0	0	0	
7	0	0	0	0	0	509	0	0	0	0	
8	0	0	0	0	0	509	0	0	0	0	
9	0	0	0	0	0	508	0	0	0	0	
10	0	0	0	0	0	507	0	0	0	0	
11	0	0	0	0	1	506	0	0	0	0	
12	0	0	0	0	0	507	0	0	0	0	
13	0	0	0	0	0	507	0	0	0	0	
14	0	0	0	0	0	507	0	0	0	0	
15	0	0	0	0	0	508	0	0	0	0	
0	0	0	0	0	0	509	0	0	0	0	
1	0	0	0	0	0	510	0	0	0	0	
2	0	0	0	0	0	510	0	0	0	0	
3	0	0	0	0	1	511	0	0	0	0	
4	0	0	0	0	0	510	0	0	0	0	
5	0	0	0	0	0	511	0	0	0	0	
6	0	0	0	0	0	511	0	0	0	0	
7	0	0	0	0	0	511	0	0	0	0	
8	0	0	0	0	0	510	0	0	0	0	
9	0	0	0	0	0	509	0	0	0	0	
10	0	0	0	0	0	510	0	0	0	0	
11	0	0	0	0	1	510	0	0	0	0	
12	0	0	0	0	0	510	0	0	0	0	
13	0	0	0	0	0	509	0	0	0	0	
14	0	0	0	0	0	509	0	0	0	0	
15	0	0	0	0	0	509	0	0	0	0	
0	0	0	0	0	0	509	0	0	0	0	
1	0	0	0	0	0	510	0	0	0	0	
2	0	0	0	0	0	509	0	0	0	0	
3	0	0	0	0	1	509	0	0	0	0	
4	0	0	0	0	0	511	0	0	0	0	
5	0	0	0	0	0	511	0	0	0	0	
6	0	0	0	0	0	510	0	0	0	0	
7	0	0	0	0	0	511	0	0	0	0	
8	0	0	0	0	0	511	0	0	0	0	
9	0	0	0	0	0	511	0	0	0	0	
10	0	0	0	0	0	511	0	0	0	0	
11	0	0	0	0	1	510	0	0	0	0	
12	0	0	0	0	0	510	0	0	0	0	
13	0	0	0	0	0	510	0	0	0	0	
14	0	0	0	0	0	509	0	0	0	0	
15	0	0	0	0	0	510	0	0	0	0	
0	0	0	0	0	0	510	0	0	0	0	
1	0	0	0	0	0	510	0	0	0	0	
2	0	0	0	0	0	510	0	0	0	0	
3	0	0	0	0	1	510	0	0	0	0	
4	0	0	0	0	0	511	0	0	0	0	
5	0	0	0	0	0	511	0	0	0	0	
6	0	0	0	0	0	511	0	0	0	0	
7	0	0	0	0	0	512	0	0	0	0	
8	0	0	0	0	0	513	0	0	0	0	
9	0	0	0	0	0	513	0	0	0	0	
10	0	0	0	0	0	513	0	0	0	0	
11	0	0	0	0	1	514	0	0	0	0	
12	0	0	0	0	0	513	0	0	0	0	
13	0	0	0	0	0	513	0	0	0	0	
14	0	0	0	0	0	514	0	0	0	0	
15	0	0	0	0	0	515	0	0	0	0	
0	0	0	0	0	0	515	0	0	0	0	
1	0	0	0	0	0	515	0	0	0	0	
2	0	0	0	0	0	515	0	0	0	0	
3	0	0	0	0	1	515	0	0	0	0	
4	0	0	0	0	0	514	0	0	0	0	
5	0	0	0	0	0	515	0	0	0	0	
6	0	0	0	0	0	515	0	0	0	0	
7	0	0	0	0	0	515	0	0	0	0	
8	0	0	0	0	0	513	0	0	0	0	
9	0	0	0	0	0	513	0	0	0	0	
10	0	0	0	0	0	513	0	0	0	0	
11	0	0	0	0	1	513	0	0	0	0	
12	0	0	0	0	0	513	0	0	0	0	
13	0	0	0	0	0	513	0	0	0	0	
14	0	0	0	0	0	513	0	0	0	0	
15	0	0	0	0	0	513	0	0	0	0	
0	0	0	0	0	0	512	0	0	0	0	
1	0	0	0	0	0	511	0	0	0	0	
2	0	0	0	0	0	510	0	0	0	0	
3	0	0	0	0	1	511	0	0	0	0	
4	0	0	0	0	0	512	0	0	0	0	
5	0	0	0	0	0	512	0	0	0	0	
6	0	0	0	0	0	512	0	0	0	0	
7	0	0	0	0	0	512	0	0	0	0	
8	0	0	0	0	0	512	0	0	0	0	
9	0	0	0	0	0	513	0	0	0	0	
10	0	0	0	0	0	513	0	0	0	0	
11	0	0	0	0	1	514	0	0	0	0	
12	0	0	0	0	0	513	0	0	0	0	
13	0	0	0	0	0	515	0	0	0	0	
14	0	0	0	0	0	515	0	0	0	0	
15	0	0	0	0	0	515	0	0	0	0	
0	0	0	0	0	0	515	0	0	0	0	
1	0	0	0	0	0	515	0	0	0	0	
2	0	0	0	0	0	517	0	0	0	0	
3	0	0	0	0	1	518	0	0	0	0	
4	0	0	0	0	0	518	0	0	0	0	
5	0	0	0	0	0	518	0	0	0	0	
6	0	0	0	0	0	519	0	0	0	0	
7	0	0	0	0	0	519	0	0	0	0	
8	0	0	0	0	0	521	0	0	0	0	
9	0	0	0	0	0	522	0	0	0	0	
10	0	0	0	0	0	522	0	0	0	0	
11	0	0	0	0	1	521	0	0	0	0	
12	0	0	0	0	0	521	0	0	0	0	
13	0	0	0	0	0	522	0	0	0	0	
14	0	0	0	0	0	522	0	0	0	0	
15	0	0	0	0	0	523	0	0	0	0	
0	0	0	0	0	0	524	0	0	0	0	
1	0	0	0	0	0	524	0	0	0	0	
2	0	0	0	0	0	524	0	0	0	0	
3	0	0	0	0	1	524	0	0	0	0	
4	0	0	0	0	0	525	0	0	0	0	
5	0	0	0	0	0	526	0	0	0	0	
6	0	0	0	0	0	526	0	0	0	0	
7	0	0	0	0	0	526	0	0	0	0	
8	0	0	0	0	0	526	0	0	0	0	
9	0	0	0	0	0	527	0	0	0	0	
10	0	0	0	0	0	526	0	0	0	0	
11	0	0	0	0	1	526	0	0	0	0	
12	0	0	0	0	0	525	0	0	0	0	
13	0	0	0	0	0	527	0	0	0	0	
14	0	0	0	0	0	526	0	0	0	0	
15	0	0	0	0	0	527	0	0	0	0	
0	0	0	0	0	0	527	0	0	0	0	
1	0	0	0	0	0	527	0	0	0	0	
2	0	0	0	0	0	527	0	0	0	0	
3	0	0	0	0	1	528	0	0	0	0	
4	0	0	0	0	0	527	0	0	0	0	
5	0	0	0	0	0	528	0	0	0	0	
6	0	0	0	0	0	529	0	0	0	0	
7	0	0	0	0	0	529	0	0	0	0	
8	0	0	0	0	0	529	0	0	0	0	
9	0	0	0	0	0	531	0	0	0	0	
10	0	0	0	0	0	531	0	0	0	0	
11	0	0	0	0	1	531	0	0	0	0	
12	0	0	0	0	0	531	0	0	0	0	
13	0	0	0	0	0	532	0	0	0	0	
14	0	0	0	0	0	534	0	0	0	0	
15	0	0	0	0	0	534	0	0	0	0	
0	0	0	0	0	0	535	0	0	0	0	
1	0	0	0	0	0	534	0	0	0	0	
2	0	0	0	0	0	534	0	0	0	0	
3	0	0	0	0	1	533	0	0	0	0	
4	0	0	0	0	0	532	0	0	0	0	
5	0	0	0	0	0	531	0	0	0	0	
6	0	0	0	0	0	527	0	0	0	0	
7	0	0	0	0	0	525	0	0	0	0	
8	0	0	0	0	0	522	0	0	0	0	
9	0	0	0	0	0	521	0	0	0	0	
10	0	0	0	0	0	521	0	0	0	0	
11	0	0	0	0	1	520	0	0	0	0	
12	0	0	0	0	0	519	0	0	0	0	
13	0	0	0	0	0	518	0	0	0	0	
14	0	0	0	0	0	517	0	0	0	0	
15	0	0	0	0	0	517	0	0	0	0	
0	0	0	0	0	0	516	0	0	0	0	
1	0	0	0	0	0	518	0	0	0	0	
2	0	0	0	0	0	519	0	0	0	0	
3	0	0	0	0	1	521	0	0	0	0	
4	0	0	0	0	0	523	0	0	0	0	
5	0	0	0	0	0	523	0	0	0	0	
6	0	0	0	0	0	524	0	0	0	0	
7	0	0	0	0	0	523	0	0	0	0	
8	0	0	0	0	0	522	0	0	0	0	
9	0	0	0	0	0	521	0	0	0	0	
10	0	0	0	0	0	522	0	0	0	0	
11	0	0	0	0	1	522	0	0	0	0	
12	0	0	0	0	0	523	0	0	0	0	
13	0	0	0	0	0	523	0	0	0	0	
14	0	0	0	0	0	523	0	0	0	0	
15	0	0	0	0	0	523	0	0	0	0	
0	0	0	0	0	0	522	0	0	0	0	
1	0	0	0	0	0	521	0	0	0	0	
2	0	0	0	0	0	520	0	0	0	0	
3	0	0	0	0	1	518	0	0	0	0	
4	0	0	0	0	0	515	0	0	0	0	
5	0	0	0	0	0	512	0	0	0	0	
6	0	0	0	0	0	509	0	0	0	0	
7	0	0	0	0	0	505	0	0	0	0	
8	0	0	0	0	0	503	0	0	0	0	
9	0	0	0	0	0	501	0	0	0	0	
10	0	0	0	0	0	499	0	0	0	0	
11	0	0	0	0	1	499	0	0	0	0	
12	0	0	0	0	0	497	0	0	0	0	
13	0	0	0	0	0	496	0	0	0	0	
14	0	0	0	0	0	496	0	0	0	0	
15	0	0	0	0	0	496	0	0	0	0	
0	0	0	0	0	0	495	0	0	0	0	
1	0	0	0	0	0	495	0	0	0	0	
2	0	0	0	0	0	494	0	0	0	0	
3	0	0	0	0	0	494	0	0	0	0	
4	0	0	0	0	0	492	0	0	0	0	
5	0	0	0	0	0	492	0	0	0	0	
6	0	0	0	0	0	492	0	0	0	0	
7	0	0	0	0	0	494	0	0	0	0	
8	0	0	0	0	0	495	0	0	0	0	
9	0	0	0	0	0	495	0	0	0	0	
10	0	0	0	0	0	496	0	0	0	0	
11	0	0	0	0	0	496	0	0	0	0	
12	0	0	0	0	0	495	0	0	0	0	
13	0	0	0	0	0	496	0	0	0	0	
14	0	0	0	0	0	495	0	0	0	0	
15	0	0	0	0	0	494	0	0	0	0	
0	0	0	0	0	0	493	0	0	0	0	
1	0	0	0	0	0	493	0	0	0	0	
2	0	0	0	0	0	493	0	0	0	0	
3	0	0	0	0	0	493	0	0	0	0	
4	0	0	0	0	0	493	0	0	0	0	
5	0	0	0	0	0	492	0	0	0	0	
6	0	0	0	0	0	492	0	0	0	0	
7	0	0	0	0	0	492	0	0	0	0	
8	0	0	0	0	0	492	0	0	0	0	
9	0	0	0	0	0	493	0	0	0	0	
10	0	0	0	0	0	493	0	0	0	0	
11	0	0	0	0	1	492	0	0	0	0	
12	0	0	0	0	0	492	0	0	0	0	
13	0	0	0	0	0	492	0	0	0	0	
14	0	0	0	0	0	494	0	0	0	0	
15	0	0	0	0	0	494	0	0	0	0	
0	0	0	0	0	0	495	0	0	0	0	
1	0	0	0	0	0	495	0	0	0	0	
2	0	0	0	0	0	497	0	0	0	0	
3	0	0	0	0	1	497	0	0	0	0	
4	0	0	0	0	0	499	0	0	0	0	
5	0	0	0	0	0	499	0	0	0	0	
6	0	0	0	0	0	498	0	0	0	0	
7	0	0	0	0	0	499	0	0	0	0	
8	0	0	0	0	0	500	0	0	0	0	
9	0	0	0	0	0	499	0	0	0	0	
10	0	0	0	0	0	497	0	0	0	0	
11	0	0	0	0	1	496	0	0	0	0	
12	0	0	0	0	0	494	0	0	0	0	
13	0	0	0	0	0	493	0	0	0	0	
14	0	0	0	0	0	491	0	0	0	0	
15	0	0	0	0	0	490	0	0	0	0	
0	0	0	0	0	0	491	0	0	0	0	
1	0	0	0	0	0	491	0	0	0	0	
2	0	0	0	0	0	492	0	0	0	0	
3	0	0	0	0	1	491	0	0	0	0	
4	0	0	0	0	0	492	0	0	0	0	
5	0	0	0	0	0	492	0	0	0	0	
6	0	0	0	0	0	492	0	0	0	0	
7	0	0	0	0	0	492	0	0	0	0	
8	0	0	0	0	0	493	0	0	0	0	
9	0	0	0	0	0	494	0	0	0	0	
10	0	0	0	0	0	493	0	0	0	0	
11	0	0	0	0	1	493	0	0	0	0	
12	0	0	0	0	0	494	0	0	0	0	
13	0	0	0	0	0	494	0	0	0	0	
14	0	0	0	0	0	493	0	0	0	0	
15	0	0	0	0	0	493	0	0	0	0	
0	0	0	0	0	0	492	0	0	0	0	
1	0	0	0	0	0	493	0	0	0	0	
2	0	0	0	0	0	492	0	0	0	0	
3	0	0	0	0	1	491	0	0	0	0	
4	0	0	0	0	0	488	0	0	0	0	
5	0	0	0	0	0	487	0	0	0	0	
6	0	0	0	0	0	485	0	0	0	0	
7	0	0	0	0	0	483	0	0	0	0	
8	0	0	0	0	0	481	0	0	0	0	
9	0	0	0	0	0	479	0	0	0	0	
10	0	0	0	0	0	478	0	0	0	0	
11	0	0	0	0	1	477	0	0	0	0	
12	0	0	0	0	0	477	0	0	0	0	
13	0	0	0	0	0	480	0	0	0	0	
14	0	0	0	0	0	484	0	0	0	0	
15	0	0	0	0	0	490	0	0	0	0	
0	0	0	0	0	0	497	0	0	0	0	
1	0	0	0	0	0	507	0	0	0	0	
2	0	0	0	0	0	518	0	0	0	0	
3	0	0	0	0	1	530	0	0	0	0	
4	0	0	0	0	0	543	0	0	0	0	
5	0	0	0	0	0	557	0	0	0	0	
6	0	0	0	0	0	569	0	0	0	0	
7	0	0	0	0	0	582	0	0	0	0	
8	0	0	0	0	0	595	0	0	0	0	
9	0	0	0	0	0	609	0	0	0	0	
10	0	0	0	0	0	624	0	0	0	0	
11	0	0	0	0	1	640	0	0	0	0	
12	0	0	0	0	0	654	1	0	0	0	
13	0	0	0	0	0	669	1	0	0	0	
14	0	0	0	0	0	686	1	0	0	0	
15	0	0	0	0	0	705	1	0	0	0	
0	0	0	0	0	0	726	1	0	0	0	
1	0	0	0	0	0	747	1	0	0	0	
2	0	0	0	0	0	769	1	0	0	0	
3	0	0	0	0	1	792	1	0	0	0	
4	0	0	0	0	0	817	1	0	0	0	
5	0	0	0	0	0	842	2	0	0	0	
6	0	0	0	0	0	867	2	0	0	0	
7	0	0	0	0	0	887	2	0	0	0	
8	0	0	0	0	0	904	2	0	0	0	
9	0	0	0	0	0	922	2	0	0	0	
10	0	0	0	0	0	936	2	0	0	0	
11	0	0	0	0	1	949	2	0	0	0	
12	0	0	0	0	0	957	3	0	0	0	
13	0	0	0	0	0	955	2	0	0	0	
14	0	0	0	0	0	939	2	0	0	0	
15	0	0	0	0	0	915	2	0	0	0	
0	0	0	0	0	0	886	2	0	0	0	
1	0	0	0	0	0	851	2	0	0	0	
2	0	0	0	0	0	811	1	0	0	0	
3	0	0	0	0	1	769	1	0	0	0	
4	0	0	0	0	0	722	1	0	0	0	
5	0	0	0	0	0	678	1	0	0	0	
6	0	0	0	0	0	637	1	0	0	0	
7	0	0	0	0	0	603	0	0	0	0	
8	0	0	0	0	0	574	0	0	0	0	
9	0	0	0	0	0	547	0	0	0	0	
10	0	0	0	0	0	524	0	0	0	0	
11	0	0	0	0	1	504	0	0	0	0	
12	0	0	0	0	0	489	0	0	0	0	
13	0	0	0	0	0	477	0	0	0	0	
14	0	0	0	0	0	467	0	0	0	0	
15	0	0	0	0	0	458	0	0	0	0	
0	0	0	0	0	0	447	0	0	0	0	
1	0	0	0	0	0	436	0	0	0	0	
2	0	0	0	0	0	428	0	0	0	0	
3	0	0	0	0	1	419	0	0	0	0	
4	0	0	0	0	0	410	0	0	0	0	
5	0	0	0	0	0	403	0	0	0	0	
6	0	0	0	0	0	396	0	0	0	0	
7	0	0	0	0	0	390	0	0	0	0	
8	0	0	0	0	0	384	0	0	0	0	
9	0	0	0	0	0	376	0	0	0	0	
10	0	0	0	0	0	366	0	0	0	0	
11	0	0	0	0	1	356	0	0	0	0	
12	0	0	0	0	0	348	0	0	0	0	
13	0	0	0	0	0	340	0	0	0	0	
14	0	0	0	0	0	335	0	0	0	0	
15	0	0	0	0	0	332	0	0	0	0	
0	0	0	0	0	0	330	0	0	0	0	
1	0	0	0	0	0	331	0	0	0	0	
2	0	0	0	0	0	335	0	0	0	0	
3	0	0	0	0	1	342	0	0	0	0	
4	0	0	0	0	0	350	0	0	0	0	
5	0	0	0	0	0	358	0	0	0	0	
6	0	0	0	0	0	365	0	0	0	0	
7	0	0	0	0	0	372	0	0	0	0	
8	0	0	0	0	0	379	0	0	0	0	
9	0	0	0	0	0	384	0	0	0	0	
10	0	0	0	0	0	389	0	0	0	0	
11	0	0	0	0	1	395	0	0	0	0	
12	0	0	0	0	0	401	0	0	0	0	
13	0	0	0	0	0	408	0	0	0	0	
14	0	0	0	0	0	415	0	0	0	0	
15	0	0	0	0	0	422	0	0	0	0	
0	0	0	0	0	0	428	0	0	0	0	
1	0	0	0	0	0	432	0	0	0	0	
2	0	0	0	0	0	436	0	0	0	0	
3	0	0	0	0	1	440	0	0	0	0	
4	0	0	0	0	0	443	0	0	0	0	
5	0	0	0	0	0	446	0	0	0	0	
6	0	0	0	0	0	448	0	0	0	0	
7	0	0	0	0	0	451	0	0	0	0	
8	0	0	0	0	0	453	0	0	0	0	
9	0	0	0	0	0	458	0	0	0	0	
10	0	0	0	0	0	461	0	0	0	0	
11	0	0	0	0	1	465	0	0	0	0	
12	0	0	0	0	0	468	0	0	0	0	
13	0	0	0	0	0	470	0	0	0	0	
14	0	0	0	0	0	473	0	0	0	0	
15	0	0	0	0	0	476	0	0	0	0	
0	0	0	0	0	0	478	0	0	0	0	
1	0	0	0	0	0	480	0	0	0	0	
2	0	0	0	0	0	482	0	0	0	0	
3	0	0	0	0	1	483	0	0	0	0	
4	0	0	0	0	0	484	0	0	0	0	
5	0	0	0	0	0	485	0	0	0	0	
6	0	0	0	0	0	486	0	0	0	0	
7	0	0	0	0	0	486	0	0	0	0	
8	0	0	0	0	0	486	0	0	0	0	
9	0	0	0	0	0	487	0	0	0	0	
10	0	0	0	0	0	487	0	0	0	0	
11	0	0	0	0	1	487	0	0	0	0	
12	0	0	0	0	0	487	0	0	0	0	
13	0	0	0	0	0	488	0	0	0	0	
14	0	0	0	0	0	489	0	0	0	0	
15	0	0	0	0	0	491	0	0	0	0	
0	0	0	0	0	0	492	0	0	0	0	
1	0	0	0	0	0	493	0	0	0	0	
2	0	0	0	0	0	494	0	0	0	0	
3	0	0	0	0	1	494	0	0	0	0	
4	0	0	0	0	0	494	0	0	0	0	
5	0	0	0	0	0	496	0	0	0	0	
6	0	0	0	0	0	497	0	0	0	0	
7	0	0	0	0	0	497	0	0	0	0	
8	0	0	0	0	0	498	0	0	0	0	
9	0	0	0	0	0	499	0	0	0	0	
10	0	0	0	0	0	500	0	0	0	0	
11	0	0	0	0	1	500	0	0	0	0	
12	0	0	0	0	0	502	0	0	0	0	
13	0	0	0	0	0	503	0	0	0	0	
14	0	0	0	0	0	503	0	0	0	0	
15	0	0	0	0	0	504	0	0	0	0	
0	0	0	0	0	0	505	0	0	0	0	
1	0	0	0	0	0	506	0	0	0	0	
2	0	0	0	0	0	505	0	0	0	0	
3	0	0	0	0	1	504	0	0	0	0	
4	0	0	0	0	0	504	0	0	0	0	
5	0	0	0	0	0	505	0	0	0	0	
6	0	0	0	0	0	505	0	0	0	0	
7	0	0	0	0	0	505	0	0	0	0	
8	0	0	0	0	0	506	0	0	0	0	
9	0	0	0	0	0	508	0	0	0	0	
10	0	0	0	0	0	508	0	0	0	0	
11	0	0	0	0	0	509	0	0	0	0	
12	0	0	0	0	0	510	0	0	0	0	
13	0	0	0	0	0	511	0	0	0	0	
14	0	0	0	0	0	512	0	0	0	0	
15	0	0	0	0	0	513	0	0	0	0	
0	0	0	0	0	0	513	0	0	0	0	
1	0	0	0	0	0	513	0	0	0	0	
2	0	0	0	0	0	514	0	0	0	0	
3	0	0	0	0	0	514	0	0	0	0	
4	0	0	0	0	0	515	0	0	0	0	
5	0	0	0	0	0	515	0	0	0	0	
6	0	0	0	0	0	515	0	0	0	0	
7	0	0	0	0	0	515	0	0	0	0	
8	0	0	0	0	0	515	0	0	0	0	
9	0	0	0	0	0	515	0	0	0	0	
10	0	0	0	0	0	515	0	0	0	0	
11	0	0	0	0	0	516	0	0	0	0	
12	0	0	0	0	0	517	0	0	0	0	
13	0	0	0	0	0	517	0	0	0	0	
14	0	0	0	0	0	516	0	0	0	0	
15	0	0	0	0	0	516	0	0	0	0	
0	0	0	0	0	0	517	0	0	0	0	
1	0	0	0	0	0	518	0	0	0	0	
2	0	0	0	0	0	520	0	0	0	0	
3	0	0	0	0	1	521	0	0	0	0	
4	0	0	0	0	0	521	0	0	0	0	
5	0	0	0	0	0	521	0	0	0	0	
6	0	0	0	0	0	522	0	0	0	0	
7	0	0	0	0	0	522	0	0	0	0	
8	0	0	0	0	0	521	0	0	0	0	
9	0	0	0	0	0	522	0	0	0	0	
10	0	0	0	0	0	523	0	0	0	0	
11	0	0	0	0	1	522	0	0	0	0	
12	0	0	0	0	0	522	0	0	0	0	
13	0	0	0	0	0	522	0	0	0	0	
14	0	0	0	0	0	521	0	0	0	0	
15	0	0	0	0	0	523	0	0	0	0	
0	0	0	0	0	0	523	0	0	0	0	
1	0	0	0	0	0	522	0	0	0	0	
2	0	0	0	0	0	522	0	0	0	0	
3	0	0	0	0	1	523	0	0	0	0	
4	0	0	0	0	0	523	0	0	0	0	
5	0	0	0	0	0	524	0	0	0	0	
6	0	0	0	0	0	525	0	0	0	0	
7	0	0	0	0	0	526	0	0	0	0	
8	0	0	0	0	0	526	0	0	0	0	
9	0	0	0	0	0	527	0	0	0	0	
10	0	0	0	0	0	527	0	0	0	0	
11	0	0	0	0	1	527	0	0	0	0	
12	0	0	0	0	0	527	0	0	0	0	
13	0	0	0	0	0	527	0	0	0	0	
14	0	0	0	0	0	528	0	0	0	0	
15	0	0	0	0	0	529	0	0	0	0	
0	0	0	0	0	0	529	0	0	0	0	
1	0	0	0	0	0	529	0	0	0	0	
2	0	0	0	0	0	529	0	0	0	0	
3	0	0	0	0	1	529	0	0	0	0	
4	0	0	0	0	0	529	0	0	0	0	
5	0	0	0	0	0	531	0	0	0	0	
6	0	0	0	0	0	531	0	0	0	0	
7	0	0	0	0	0	531	0	0	0	0	
8	0	0	0	0	0	531	0	0	0	0	
9	0	0	0	0	0	531	0	0	0	0	
10	0	0	0	0	0	532	0	0	0	0	
11	0	0	0	0	1	532	0	0	0	0	
12	0	0	0	0	0	532	0	0	0	0	
13	0	0	0	0	0	532	0	0	0	0	
14	0	0	0	0	0	532	0	0	0	0	
15	0	0	0	0	0	532	0	0	0	0	
0	0	0	0	0	0	533	0	0	0	0	
1	0	0	0	0	0	535	0	0	0	0	
2	0	0	0	0	0	535	0	0	0	0	
3	0	0	0	0	1	534	0	0	0	0	
4	0	0	0	0	0	534	0	0	0	0	
5	0	0	0	0	0	533	0	0	0	0	
6	0	0	0	0	0	530	0	0	0	0	
7	0	0	0	0	0	529	0	0	0	0	
8	0	0	0	0	0	527	0	0	0	0	
9	0	0	0	0	0	526	0	0	0	0	
10	0	0	0	0	0	524	0	0	0	0	
11	0	0	0	0	1	524	0	0	0	0	
12	0	0	0	0	0	525	0	0	0	0	
13	0	0	0	0	0	525	0	0	0	0	
14	0	0	0	0	0	526	0	0	0	0	
15	0	0	0	0	0	524	0	0	0	0	
0	0	0	0	0	0	523	0	0	0	0	
1	0	0	0	0	0	521	0	0	0	0	
2	0	0	0	0	0	520	0	0	0	0	
3	0	0	0	0	1	520	0	0	0	0	
4	0	0	0	0	0	518	0	0	0	0	
5	0	0	0	0	0	518	0	0	0	0	
6	0	0	0	0	0	517	0	0	0	0	
7	0	0	0	0	0	516	0	0	0	0	
8	0	0	0	0	0	516	0	0	0	0	
9	0	0	0	0	0	517	0	0	0	0	
10	0	0	0	0	0	517	0	0	0	0	
11	0	0	0	0	1	516	0	0	0	0	
12	0	0	0	0	0	516	0	0	0	0	
13	0	0	0	0	0	517	0	0	0	0	
14	0	0	0	0	0	516	0	0	0	0	
15	0	0	0	0	0	516	0	0	0	0	
0	0	0	0	0	0	516	0	0	0	0	
1	0	0	0	0	0	517	0	0	0	0	
2	0	0	0	0	0	517	0	0	0	0	
3	0	0	0	0	1	516	0	0	0	0	
4	0	0	0	0	0	517	0	0	0	0	
5	0	0	0	0	0	517	0	0	0	0	
6	0	0	0	0	0	517	0	0	0	0	
7	0	0	0	0	0	517	0	0	0	0	
8	0	0	0	0	0	517	0	0	0	0	
9	0	0	0	0	0	517	0	0	0	0	
10	0	0	0	0	0	518	0	0	0	0	
11	0	0	0	0	1	518	0	0	0	0	
12	0	0	0	0	0	518	0	0	0	0	
13	0	0	0	0	0	519	0	0	0	0	
14	0	0	0	0	0	520	0	0	0	0	
15	0	0	0	0	0	521	0	0	0	0	
0	0	0	0	0	0	522	0	0	0	0	
1	0	0	0	0	0	521	0	0	0	0	
2	0	0	0	0	0	520	0	0	0	0	
3	0	0	0	0	1	520	0	0	0	0	
4	0	0	0	0	0	519	0	0	0	0	
5	0	0	0	0	0	520	0	0	0	0	
6	0	0	0	0	0	521	0	0	0	0	
7	0	0	0	0	0	520	0	0	0	0	
8	0	0	0	0	0	520	0	0	0	0	
9	0	0	0	0	0	518	0	0	0	0	
10	0	0	0	0	0	518	0	0	0	0	
11	0	0	0	0	1	517	0	0	0	0	
12	0	0	0	0	0	516	0	0	0	0	
13	0	0	0	0	0	516	0	0	0	0	
14	0	0	0	0	0	515	0	0	0	0	
15	0	0	0	0	0	515	0	0	0	0	
0	0	0	0	0	0	516	0	0	0	0	
1	0	0	0	0	0	516	0	0	0	0	
2	0	0	0	0	0	516	0	0	0	0	
3	0	0	0	0	1	516	0	0	0	0	
4	0	0	0	0	0	516	0	0	0	0	
5	0	0	0	0	0	518	0	0	0	0	
6	0	0	0	0	0	518	0	0	0	0	
7	0	0	0	0	0	519	0	0	0	0	
8	0	0	0	0	0	519	0	0	0	0	
9	0	0	0	0	0	519	0	0	0	0	
10	0	0	0	0	0	519	0	0	0	0	
11	0	0	0	0	1	519	0	0	0	0	
12	0	0	0	0	0	519	0	0	0	0	
13	0	0	0	0	0	518	0	0	0	0	
14	0	0	0	0	0	518	0	0	0	0	
15	0	0	0	0	0	517	0	0	0	0	
0	0	0	0	0	0	516	0	0	0	0	
1	0	0	0	0	0	516	0	0	0	0	
2	0	0	0	0	0	516	0	0	0	0	
3	0	0	0	0	1	515	0	0	0	0	
4	0	0	0	0	0	515	0	0	0	0	
5	0	0	0	0	0	514	0	0	0	0	
6	0	0	0	0	0	516	0	0	0	0	
7	0	0	0	0	0	516	0	0	0	0	
8	0	0	0	0	0	515	0	0	0	0	
9	0	0	0	0	0	515	0	0	0	0	
10	0	0	0	0	0	515	0	0	0	0	
11	0	0	0	0	1	515	0	0	0	0	
12	0	0	0	0	0	516	0	0	0	0	
13	0	0	0	0	0	515	0	0	0	0	
14	0	0	0	0	0	515	0	0	0	0	
15	0	0	0	0	0	514	0	0	0	0	
0	0	0	0	0	0	514	0	0	0	0	
1	0	0	0	0	0	513	0	0	0	0	
2	0	0	0	0	0	512	0	0	0	0	
3	0	0	0	0	1	512	0	0	0	0	
4	0	0	0	0	0	513	0	0	0	0	
5	0	0	0	0	0	512	0	0	0	0	
6	0	0	0	0	0	510	0	0	0	0	
7	0	0	0	0	0	508	0	0	0	0	
8	0	0	0	0	0	508	0	0	0	0	
9	0	0	0	0	0	507	0	0	0	0	
10	0	0	0	0	0	507	0	0	0	0	
11	0	0	0	0	1	506	0	0	0	0	
12	0	0	0	0	0	505	0	0	0	0	
13	0	0	0	0	0	504	0	0	0	0	
14	0	0	0	0	0	504	0	0	0	0	
15	0	0	0	0	0	503	0	0	0	0	
0	0	0	0	0	0	502	0	0	0	0	
1	0	0	0	0	0	499	0	0	0	0	
2	0	0	0	0	0	498	0	0	0	0	
3	0	0	0	0	1	496	0	0	0	0	
4	0	0	0	0	0	495	0	0	0	0	
5	0	0	0	0	0	495	0	0	0	0	
6	0	0	0	0	0	496	0	0	0	0	
7	0	0	0	0	0	498	0	0	0	0	
8	0	0	0	0	0	498	0	0	0	0	
9	0	0	0	0	0	498	0	0	0	0	
10	0	0	0	0	0	497	0	0	0	0	
11	0	0	0	0	1	497	0	0	0	0	
12	0	0	0	0	0	495	0	0	0	0	
13	0	0	0	0	0	494	0	0	0	0	
14	0	0	0	0	0	494	0	0	0	0	
15	0	0	0	0	0	492	0	0	0	0	
0	0	0	0	0	0	491	0	0	0	0	
1	0	0	0	0	0	491	0	0	0	0	
2	0	0	0	0	0	492	0	0	0	0	
3	0	0	0	0	1	492	0	0	0	0	
4	0	0	0	0	0	492	0	0	0	0	
5	0	0	0	0	0	492	0	0	0	0	
6	0	0	0	0	0	492	0	0	0	0	
7	0	0	0	0	0	492	0	0	0	0	
8	0	0	0	0	0	490	0	0	0	0	
9	0	0	0	0	0	489	0	0	0	0	
10	0	0	0	0	0	489	0	0	0	0	
11	0	0	0	0	1	490	0	0	0	0	
12	0	0	0	0	0	490	0	0	0	0	
13	0	0	0	0	0	490	0	0	0	0	
14	0	0	0	0	0	489	0	0	0	0	
15	0	0	0	0	0	488	0	0	0	0	
0	0	0	0	0	0	488	0	0	0	0	
1	0	0	0	0	0	489	0	0	0	0	
2	0	0	0	0	0	491	0	0	0	0	
3	0	0	0	0	1	492	0	0	0	0	
4	0	0	0	0	0	491	0	0	0	0	
5	0	0	0	0	0	492	0	0	0	0	
6	0	0	0	0	0	493	0	0	0	0	
7	0	0	0	0	0	494	0	0	0	0	
8	0	0	0	0	0	495	0	0	0	0	
9	0	0	0	0	0	495	0	0	0	0	
10	0	0	0	0	0	494	0	0	0	0	
11	0	0	0	0	0	493	0	0	0	0	
12	0	0	0	0	0	493	0	0	0	0	
13	0	0	0	0	0	493	0	0	0	0	
14	0	0	0	0	0	494	0	0	0	0	
15	0	0	0	0	0	495	0	0	0	0	
0	0	0	0	0	0	494	0	0	0	0	
1	0	0	0	0	0	495	0	0	0	0	
2	0	0	0	0	0	495	0	0	0	0	
3	0	0	0	0	0	495	0	0	0	0	
4	0	0	0	0	0	496	0	0	0	0	
5	0	0	0	0	0	495	0	0	0	0	
6	0	0	0	0	0	494	0	0	0	0	
7	0	0	0	0	0	494	0	0	0	0	
8	0	0	0	0	0	493	0	0	0	0	
9	0	0	0	0	0	493	0	0	0	0	
10	0	0	0	0	0	492	0	0	0	0	
11	0	0	0	0	1	494	0	0	0	0	
12	0	0	0	0	0	494	0	0	0	0	
13	0	0	0	0	0	495	0	0	0	0	
14	0	0	0	0	0	496	0	0	0	0	
15	0	0	0	0	0	496	0	0	0	0	
0	0	0	0	0	0	497	0	0	0	0	
1	0	0	0	0	0	499	0	0	0	0	
2	0	0	0	0	0	501	0	0	0	0	
3	0	0	0	0	1	502	0	0	0	0	
4	0	0	0	0	0	502	0	0	0	0	
5	0	0	0	0	0	502	0	0	0	0	
6	0	0	0	0	0	503	0	0	0	0	
7	0	0	0	0	0	503	0	0	0	0	
8	0	0	0	0	0	503	0	0	0	0	
9	0	0	0	0	0	502	0	0	0	0	
10	0	0	0	0	0	501	0	0	0	0	
11	0	0	0	0	1	502	0	0	0	0	
12	0	0	0	0	0	501	0	0	0	0	
13	0	0	0	0	0	500	0	0	0	0	
14	0	0	0	0	0	501	0	0	0	0	
15	0	0	0	0	0	501	0	0	0	0	
0	0	0	0	0	0	500	0	0	0	0	
1	0	0	0	0	0	500	0	0	0	0	
2	0	0	0	0	0	499	0	0	0	0	
3	0	0	0	0	1	499	0	0	0	0	
4	0	0	0	0	0	499	0	0	0	0	
5	0	0	0	0	0	500	0	0	0	0	
6	0	0	0	0	0	503	0	0	0	0	
7	0	0	0	0	0	503	0	0	0	0	
8	0	0	0	0	0	502	0	0	0	0	
9	0	0	0	0	0	502	0	0	0	0	
10	0	0	0	0	0	503	0	0	0	0	
11	0	0	0	0	1	504	0	0	0	0	
12	0	0	0	0	0	504	0	0	0	0	
13	0	0	0	0	0	504	0	0	0	0	
14	0	0	0	0	0	505	0	0	0	0	
15	0	0	0	0	0	504	0	0	0	0	
0	0	0	0	0	0	505	0	0	0	0	
1	0	0	0	0	0	506	0	0	0	0	
2	0	0	0	0	0	504	0	0	0	0	
3	0	0	0	0	1	504	0	0	0	0	
4	0	0	0	0	0	503	0	0	0	0	
5	0	0	0	0	0	503	0	0	0	0	
6	0	0	0	0	0	503	0	0	0	0	
7	0	0	0	0	0	503	0	0	0	0	
8	0	0	0	0	0	503	0	0	0	0	
9	0	0	0	0	0	503	0	0	0	0	
10	0	0	0	0	0	504	0	0	0	0	
11	0	0	0	0	1	506	0	0	0	0	
12	0	0	0	0	0	507	0	0	0	0	
13	0	0	0	0	0	507	0	0	0	0	
14	0	0	0	0	0	506	0	0	0	0	
15	0	0	0	0	0	506	0	0	0	0	
0	0	0	0	0	0	507	0	0	0	0	
1	0	0	0	0	0	507	0	0	0	0	
2	0	0	0	0	0	508	0	0	0	0	
3	0	0	0	0	1	508	0	0	0	0	
4	0	0	0	0	0	508	0	0	0	0	
5	0	0	0	0	0	510	0	0	0	0	
6	0	0	0	0	0	509	0	0	0	0	
7	0	0	0	0	0	509	0	0	0	0	
8	0	0	0	0	0	509	0	0	0	0	
9	0	0	0	0	0	509	0	0	0	0	
10	0	0	0	0	0	510	0	0	0	0	
11	0	0	0	0	1	510	0	0	0	0	
12	0	0	0	0	0	510	0	0	0	0	
13	0	0	0	0	0	511	0	0	0	0	
14	0	0	0	0	0	511	0	0	0	0	
15	0	0	0	0	0	512	0	0	0	0	
0	0	0	0	0	0	512	0	0	0	0	
1	0	0	0	0	0	513	0	0	0	0	
2	0	0	0	0	0	513	0	0	0	0	
3	0	0	0	0	1	513	0	0	0	0	
4	0	0	0	0	0	512	0	0	0	0	
5	0	0	0	0	0	512	0	0	0	0	
6	0	0	0	0	0	514	0	0	0	0	
7	0	0	0	0	0	515	0	0	0	0	
8	0	0	0	0	0	514	0	0	0	0	
9	0	0	0	0	0	514	0	0	0	0	
10	0	0	0	0	0	514	0	0	0	0	
11	0	0	0	0	1	513	0	0	0	0	
12	0	0	0	0	0	511	0	0	0	0	
13	0	0	0	0	0	510	0	0	0	0	
14	0	0	0	0	0	509	0	0	0	0	
15	0	0	0	0	0	508	0	0	0	0	
0	0	0	0	0	0	508	0	0	0	0	
1	0	0	0	0	0	509	0	0	0	0	
2	0	0	0	0	0	510	0	0	0	0	
3	0	0	0	0	1	510	0	0	0	0	
4	0	0	0	0	0	511	0	0	0	0	
5	0	0	0	0	0	510	0	0	0	0	
6	0	0	0	0	0	510	0	0	0	0	
7	0	0	0	0	0	511	0	0	0	0	
8	0	0	0	0	0	511	0	0	0	0	
9	0	0	0	0	0	512	0	0	0	0	
10	0	0	0	0	0	513	0	0	0	0	
11	0	0	0	0	1	513	0	0	0	0	
12	0	0	0	0	0	512	0	0	0	0	
13	0	0	0	0	0	512	0	0	0	0	
14	0	0	0	0	0	513	0	0	0	0	
15	0	0	0	0	0	513	0	0	0	0	
0	0	0	0	0	0	513	0	0	0	0	
1	0	0	0	0	0	512	0	0	0	0	
2	0	0	0	0	0	512	0	0	0	0	
3	0	0	0	0	1	510	0	0	0	0	
4	0	0	0	0	0	510	0	0	0	0	
5	0	0	0	0	0	510	0	0	0	0	
6	0	0	0	0	0	510	0	0	0	0	
7	0	0	0	0	0	511	0	0	0	0	
8	0	0	0	0	0	511	0	0	0	0	
9	0	0	0	0	0	511	0	0	0	0	
10	0	0	0	0	0	509	0	0	0	0	
11	0	0	0	0	1	509	0	0	0	0	
12	0	0	0	0	0	509	0	0	0	0	
13	0	0	0	0	0	510	0	0	0	0	
14	0	0	0	0	0	510	0	0	0	0	
15	0	0	0	0	0	511	0	0	0	0	
0	0	0	0	0	0	512	0	0	0	0	
1	0	0	0	0	0	512	0	0	0	0	
2	0	0	0	0	0	512	0	0	0	0	
3	0	0	0	0	1	512	0	0	0	0	
4	0	0	0	0	0	512	0	0	0	0	
5	0	0	0	0	0	512	0	0	0	0	
6	0	0	0	0	0	512	0	0	0	0	
7	0	0	0	0	0	513	0	0	0	0	
8	0	0	0	0	0	514	0	0	0	0	
9	0	0	0	0	0	514	0	0	0	0	
10	0	0	0	0	0	513	0	0	0	0	
11	0	0	0	0	1	514	0	0	0	0	
12	0	0	0	0	0	515	0	0	0	0	
13	0	0	0	0	0	516	0	0	0	0	
14	0	0	0	0	0	516	0	0	0	0	
15	0	0	0	0	0	515	0	0	0	0	
0	0	0	0	0	0	515	0	0	0	0	
1	0	0	0	0	0	515	0	0	0	0	
2	0	0	0	0	0	516	0	0	0	0	
3	0	0	0	0	1	517	0	0	0	0	
4	0	0	0	0	0	518	0	0	0	0	
5	0	0	0	0	0	519	0	0	0	0	
6	0	0	0	0	0	519	0	0	0	0	
7	0	0	0	0	0	519	0	0	0	0	
8	0	0	0	0	0	519	0	0	0	0	
9	0	0	0	0	0	519	0	0	0	0	
10	0	0	0	0	0	520	0	0	0	0	
11	0	0	0	0	1	521	0	0	0	0	
12	0	0	0	0	0	521	0	0	0	0	
13	0	0	0	0	0	522	0	0	0	0	
14	0	0	0	0	0	523	0	0	0	0	
15	0	0	0	0	0	524	0	0	0	0	
0	0	0	0	0	0	524	0	0	0	0	
1	0	0	0	0	0	525	0	0	0	0	
2	0	0	0	0	0	525	0	0	0	0	
3	0	0	0	0	1	526	0	0	0	0	
4	0	0	0	0	0	526	0	0	0	0	
5	0	0	0	0	0	526	0	0	0	0	
6	0	0	0	0	0	526	0	0	0	0	
7	0	0	0	0	0	526	0	0	0	0	
8	0	0	0	0	0	526	0	0	0	0	
9	0	0	0	0	0	526	0	0	0	0	
10	0	0	0	0	0	526	0	0	0	0	
11	0	0	0	0	1	526	0	0	0	0	
12	0	0	0	0	0	524	0	0	0	0	
13	0	0	0	0	0	524	0	0	0	0	
14	0	0	0	0	0	525	0	0	0	0	
15	0	0	0	0	0	525	0	0	0	0	
0	0	0	0	0	0	525	0	0	0	0	
1	0	0	0	0	0	525	0	0	0	0	
2	0	0	0	0	0	526	0	0	0	0	
3	0	0	0	0	1	527	0	0	0	0	
4	0	0	0	0	0	528	0	0	0	0	
5	0	0	0	0	0	529	0	0	0	0	
6	0	0	0	0	0	531	0	0	0	0	
7	0	0	0	0	0	531	0	0	0	0	
8	0	0	0	0	0	532	0	0	0	0	
9	0	0	0	0	0	533	0	0	0	0	
10	0	0	0	0	0	533	0	0	0	0	
11	0	0	0	0	1	533	0	0	0	0	
12	0	0	0	0	0	534	0	0	0	0	
13	0	0	0	0	0	536	0	0	0	0	
14	0	0	0	0	0	537	0	0	0	0	
15	0	0	0	0	0	538	0	0	0	0	
0	0	0	0	0	0	539	0	0	0	0	
1	0	0	0	0	0	539	0	0	0	0	
2	0	0	0	0	0	540	0	0	0	0	
3	0	0	0	0	1	541	0	0	0	0	
4	0	0	0	0	0	541	0	0	0	0	
5	0	0	0	0	0	539	0	0	0	0	
6	0	0	0	0	0	536	0	0	0	0	
7	0	0	0	0	0	536	0	0	0	0	
8	0	0	0	0	0	536	0	0	0	0	
9	0	0	0	0	0	534	0	0	0	0	
10	0	0	0	0	0	534	0	0	0	0	
11	0	0	0	0	1	534	0	0	0	0	
12	0	0	0	0	0	534	0	0	0	0	
13	0	0	0	0	0	535	0	0	0	0	
14	0	0	0	0	0	535	0	0	0	0	
15	0	0	0	0	0	536	0	0	0	0	
0	0	0	0	0	0	536	0	0	0	0	
1	0	0	0	0	0	536	0	0	0	0	
2	0	0	0	0	0	535	0	0	0	0	
3	0	0	0	0	0	535	0	0	0	0	
4	0	0	0	0	0	534	0	0	0	0	
5	0	0	0	0	0	534	0	0	0	0	
6	0	0	0	0	0	533	0	0	0	0	
7	0	0	0	0	0	533	0	0	0	0	
8	0	0	0	0	0	533	0	0	0	0	
9	0	0	0	0	0	534	0	0	0	0	
10	0	0	0	0	0	533	0	0	0	0	
11	0	0	0	0	0	533	0	0	0	0	
12	0	0	0	0	0	532	0	0	0	0	
13	0	0	0	0	0	531	0	0	0	0	
14	0	0	0	0	0	532	0	0	0	0	
15	0	0	0	0	0	530	0	0	0	0	
0	0	0	0	0	0	528	0	0	0	0	
1	0	0	0	0	0	527	0	0	0	0	
2	0	0	0	0	0	525	0	0	0	0	
3	0	0	0	0	0	523	0	0	0	0	
4	0	0	0	0	0	520	0	0	0	0	
5	0	0	0	0	0	518	0	0	0	0	
6	0	0	0	0	0	515	0	0	0	0	
7	0	0	0	0	0	512	0	0	0	0	
8	0	0	0	0	0	509	0	0	0	0	
9	0	0	0	0	0	508	0	0	0	0	
10	0	0	0	0	0	506	0	0	0	0	
11	0	0	0	0	1	505	0	0	0	0	
12	0	0	0	0	0	504	0	0	0	0	
13	0	0	0	0	0	503	0	0	0	0	
14	0	0	0	0	0	502	0	0	0	0	
15	0	0	0	0	0	502	0	0	0	0	
0	0	0	0	0	0	502	0	0	0	0	
1	0	0	0	0	0	500	0	0	0	0	
2	0	0	0	0	0	501	0	0	0	0	
3	0	0	0	0	1	499	0	0	0	0	
4	0	0	0	0	0	499	0	0	0	0	
5	0	0	0	0	0	497	0	0	0	0	
6	0	0	0	0	0	496	0	0	0	0	
7	0	0	0	0	0	496	0	0	0	0	
8	0	0	0	0	0	496	0	0	0	0	
9	0	0	0	0	0	495	0	0	0	0	
10	0	0	0	0	0	495	0	0	0	0	
11	0	0	0	0	1	494	0	0	0	0	
12	0	0	0	0	0	495	0	0	0	0	
13	0	0	0	0	0	495	0	0	0	0	
14	0	0	0	0	0	495	0	0	0	0	
15	0	0	0	0	0	495	0	0	0	0	
0	0	0	0	0	0	496	0	0	0	0	
1	0	0	0	0	0	496	0	0	0	0	
2	0	0	0	0	0	497	0	0	0	0	
3	0	0	0	0	1	496	0	0	0	0	
4	0	0	0	0	0	497	0	0	0	0	
5	0	0	0	0	0	498	0	0	0	0	
6	0	0	0	0	0	498	0	0	0	0	
7	0	0	0	0	0	499	0	0	0	0	
8	0	0	0	0	0	499	0	0	0	0	
9	0	0	0	0	0	499	0	0	0	0	
10	0	0	0	0	0	498	0	0	0	0	
11	0	0	0	0	1	497	0	0	0	0	
12	0	0	0	0	0	497	0	0	0	0	
13	0	0	0	0	0	497	0	0	0	0	
14	0	0	0	0	0	498	0	0	0	0	
15	0	0	0	0	0	498	0	0	0	0	
0	0	0	0	0	0	499	0	0	0	0	
1	0	0	0	0	0	499	0	0	0	0	
2	0	0	0	0	0	499	0	0	0	0	
3	0	0	0	0	1	500	0	0	0	0	
4	0	0	0	0	0	500	0	0	0	0	
5	0	0	0	0	0	500	0	0	0	0	
6	0	0	0	0	0	500	0	0	0	0	
7	0	0	0	0	0	500	0	0	0	0	
8	0	0	0	0	0	500	0	0	0	0	
9	0	0	0	0	0	500	0	0	0	0	
10	0	0	0	0	0	499	0	0	0	0	
11	0	0	0	0	1	497	0	0	0	0	
12	0	0	0	0	0	497	0	0	0	0	
13	0	0	0	0	0	496	0	0	0	0	
14	0	0	0	0	0	496	0	0	0	0	
15	0	0	0	0	0	496	0	0	0	0	
0	0	0	0	0	0	496	0	0	0	0	
1	0	0	0	0	0	497	0	0	0	0	
2	0	0	0	0	0	499	0	0	0	0	
3	0	0	0	0	1	499	0	0	0	0	
4	0	0	0	0	0	499	0	0	0	0	
5	0	0	0	0	0	500	0	0	0	0	
6	0	0	0	0	0	500	0	0	0	0	
7	0	0	0	0	0	501	0	0	0	0	
8	0	0	0	0	0	502	0	0	0	0	
9	0	0	0	0	0	502	0	0	0	0	
10	0	0	0	0	0	500	0	0	0	0	
11	0	0	0	0	1	500	0	0	0	0	
12	0	0	0	0	0	500	0	0	0	0	
13	0	0	0	0	0	498	0	0	0	0	
14	0	0	0	0	0	498	0	0	0	0	
15	0	0	0	0	0	498	0	0	0	0	
0	0	0	0	0	0	498	0	0	0	0	
1	0	0	0	0	0	497	0	0	0	0	
2	0	0	0	0	0	497	0	0	0	0	
3	0	0	0	0	1	497	0	0	0	0	
4	0	0	0	0	0	496	0	0	0	0	
5	0	0	0	0	0	494	0	0	0	0	
6	0	0	0	0	0	492	0	0	0	0	
7	0	0	0	0	0	491	0	0	0	0	
8	0	0	0	0	0	489	0	0	0	0	
9	0	0	0	0	0	486	0	0	0	0	
10	0	0	0	0	0	484	0	0	0	0	
11	0	0	0	0	1	483	0	0	0	0	
12	0	0	0	0	0	481	0	0	0	0	
13	0	0	0	0	0	482	0	0	0	0	
14	0	0	0	0	0	483	0	0	0	0	
15	0	0	0	0	0	489	0	0	0	0	
0	0	0	0	0	0	496	0	0	0	0	
1	0	0	0	0	0	501	0	0	0	0	
2	0	0	0	0	0	508	0	0	0	0	
3	0	0	0	0	1	517	0	0	0	0	
4	0	0	0	0	0	528	0	0	0	0	
5	0	0	0	0	0	541	0	0	0	0	
6	0	0	0	0	0	555	0	0	0	0	
7	0	0	0	0	0	567	0	0	0	0	
8	0	0	0	0	0	579	0	0	0	0	
9	0	0	0	0	0	591	0	0	0	0	
10	0	0	0	0	0	604	0	0	0	0	
11	0	0	0	0	1	618	0	0	0	0	
12	0	0	0	0	0	633	1	0	0	0	
13	0	0	0	0	0	647	1	0	0	0	
14	0	0	0	0	0	663	1	0	0	0	
15	0	0	0	0	0	678	1	0	0	0	
0	0	0	0	0	0	694	1	0	0	0	
1	0	0	0	0	0	714	1	0	0	0	
2	0	0	0	0	0	736	1	0	0	0	
3	0	0	0	0	1	758	1	0	0	0	
4	0	0	0	0	0	780	1	0	0	0	
5	0	0	0	0	0	804	1	0	0	0	
6	0	0	0	0	0	828	1	0	0	0	
7	0	0	0	0	0	852	2	0	0	0	
8	0	0	0	0	0	876	2	0	0	0	
9	0	0	0	0	0	896	2	0	0	0	
10	0	0	0	0	0	913	2	0	0	0	
11	0	0	0	0	1	929	2	0	0	0	
12	0	0	0	0	0	942	2	0	0	0	
13	0	0	0	0	0	952	2	0	0	0	
14	0	0	0	0	0	954	2	0	0	0	
15	0	0	0	0	0	946	2	0	0	0	
0	0	0	0	0	0	924	2	0	0	0	
1	0	0	0	0	0	895	2	0	0	0	
2	0	0	0	0	0	862	2	0	0	0	
3	0	0	0	0	1	822	1	0	0	0	
4	0	0	0	0	0	780	1	0	0	0	
5	0	0	0	0	0	734	1	0	0	0	
6	0	0	0	0	0	686	1	0	0	0	
7	0	0	0	0	0	644	1	0	0	0	
8	0	0	0	0	0	606	0	0	0	0	
9	0	0	0	0	0	573	0	0	0	0	
10	0	0	0	0	0	544	0	0	0	0	
11	0	0	0	0	1	519	0	0	0	0	
12	0	0	0	0	0	497	0	0	0	0	
13	0	0	0	0	0	479	0	0	0	0	
14	0	0	0	0	0	465	0	0	0	0	
15	0	0	0	0	0	453	0	0	0	0	
0	0	0	0	0	0	443	0	0	0	0	
1	0	0	0	0	0	434	0	0	0	0	
2	0	0	0	0	0	426	0	0	0	0	
3	0	0	0	0	1	418	0	0	0	0	
4	0	0	0	0	0	411	0	0	0	0	
5	0	0	0	0	0	403	0	0	0	0	
6	0	0	0	0	0	396	0	0	0	0	
7	0	0	0	0	0	388	0	0	0	0	
8	0	0	0	0	0	382	0	0	0	0	
9	0	0	0	0	0	375	0	0	0	0	
10	0	0	0	0	0	369	0	0	0	0	
11	0	0	0	0	1	362	0	0	0	0	
12	0	0	0	0	0	354	0	0	0	0	
13	0	0	0	0	0	346	0	0	0	0	
14	0	0	0	0	0	338	0	0	0	0	
15	0	0	0	0	0	331	0	0	0	0	
0	0	0	0	0	0	326	0	0	0	0	
1	0	0	0	0	0	323	0	0	0	0	
2	0	0	0	0	0	323	0	0	0	0	
3	0	0	0	0	1	324	0	0	0	0	
4	0	0	0	0	0	328	0	0	0	0	
5	0	0	0	0	0	335	0	0	0	0	
6	0	0	0	0	0	342	0	0	0	0	
7	0	0	0	0	0	349	0	0	0	0	
8	0	0	0	0	0	356	0	0	0	0	
9	0	0	0	0	0	364	0	0	0	0	
10	0	0	0	0	0	370	0	0	0	0	
11	0	0	0	0	1	377	0	0	0	0	
12	0	0	0	0	0	382	0	0	0	0	
13	0	0	0	0	0	387	0	0	0	0	
14	0	0	0	0	0	393	0	0	0	0	
15	0	0	0	0	0	400	0	0	0	0	
0	0	0	0	0	0	408	0	0	0	0	
1	0	0	0	0	0	414	0	0	0	0	
2	0	0	0	0	0	420	0	0	0	0	
3	0	0	0	0	1	425	0	0	0	0	
4	0	0	0	0	0	429	0	0	0	0	
5	0	0	0	0	0	433	0	0	0	0	
6	0	0	0	0	0	436	0	0	0	0	
7	0	0	0	0	0	440	0	0	0	0	
8	0	0	0	0	0	442	0	0	0	0	
9	0	0	0	0	0	444	0	0	0	0	
10	0	0	0	0	0	447	0	0	0	0	
11	0	0	0	0	1	451	0	0	0	0	
12	0	0	0	0	0	452	0	0	0	0	
13	0	0	0	0	0	455	0	0	0	0	
14	0	0	0	0	0	456	0	0	0	0	
15	0	0	0	0	0	457	0	0	0	0	
0	0	0	0	0	0	459	0	0	0	0	
1	0	0	0	0	0	460	0	0	0	0	
2	0	0	0	0	0	461	0	0	0	0	
3	0	0	0	0	1	462	0	0	0	0	
4	0	0	0	0	0	462	0	0	0	0	
5	0	0	0	0	0	463	0	0	0	0	
6	0	0	0	0	0	464	0	0	0	0	
7	0	0	0	0	0	464	0	0	0	0	
8	0	0	0	0	0	465	0	0	0	0	
9	0	0	0	0	0	466	0	0	0	0	
10	0	0	0	0	0	467	0	0	0	0	
11	0	0	0	0	0	468	0	0	0	0	
12	0	0	0	0	0	468	0	0	0	0	
13	0	0	0	0	0	469	0	0	0	0	
14	0	0	0	0	0	470	0	0	0	0	
15	0	0	0	0	0	472	0	0	0	0	
0	0	0	0	0	0	473	0	0	0	0	
1	0	0	0	0	0	473	0	0	0	0	
2	0	0	0	0	0	475	0	0	0	0	
3	0	0	0	0	0	476	0	0	0	0	
4	0	0	0	0	0	477	0	0	0	0	
5	0	0	0	0	0	478	0	0	0	0	
6	0	0	0	0	0	479	0	0	0	0	
7	0	0	0	0	0	480	0	0	0	0	
8	0	0	0	0	0	480	0	0	0	0	
9	0	0	0	0	0	480	0	0	0	0	
10	0	0	0	0	0	482	0	0	0	0	
11	0	0	0	0	0	483	0	0	0	0	
12	0	0	0	0	0	483	0	0	0	0	
13	0	0	0	0	0	485	0	0	0	0	
14	0	0	0	0	0	487	0	0	0	0	
15	0	0	0	0	0	488	0	0	0	0	
0	0	0	0	0	0	489	0	0	0	0	
1	0	0	0	0	0	490	0	0	0	0	
2	0	0	0	0	0	490	0	0	0	0	
3	0	0	0	0	1	490	0	0	0	0	
4	0	0	0	0	0	491	0	0	0	0	
5	0	0	0	0	0	492	0	0	0	0	
6	0	0	0	0	0	493	0	0	0	0	
7	0	0	0	0	0	494	0	0	0	0	
8	0	0	0	0	0	494	0	0	0	0	
9	0	0	0	0	0	494	0	0	0	0	
10	0	0	0	0	0	494	0	0	0	0	
11	0	0	0	0	1	496	0	0	0	0	
12	0	0	0	0	0	497	0	0	0	0	
13	0	0	0	0	0	498	0	0	0	0	
14	0	0	0	0	0	499	0	0	0	0	
15	0	0	0	0	0	499	0	0	0	0	
0	0	0	0	0	0	499	0	0	0	0	
1	0	0	0	0	0	500	0	0	0	0	
2	0	0	0	0	0	499	0	0	0	0	
3	0	0	0	0	1	499	0	0	0	0	
4	0	0	0	0	0	500	0	0	0	0	
5	0	0	0	0	0	500	0	0	0	0	
6	0	0	0	0	0	500	0	0	0	0	
7	0	0	0	0	0	500	0	0	0	0	
8	0	0	0	0	0	502	0	0	0	0	
9	0	0	0	0	0	502	0	0	0	0	
10	0	0	0	0	0	503	0	0	0	0	
11	0	0	0	0	1	503	0	0	0	0	
12	0	0	0	0	0	504	0	0	0	0	
13	0	0	0	0	0	504	0	0	0	0	
14	0	0	0	0	0	504	0	0	0	0	
15	0	0	0	0	0	504	0	0	0	0	
0	0	0	0	0	0	506	0	0	0	0	
1	0	0	0	0	0	507	0	0	0	0	
2	0	0	0	0	0	508	0	0	0	0	
3	0	0	0	0	1	508	0	0	0	0	
4	0	0	0	0	0	510	0	0	0	0	
5	0	0	0	0	0	509	0	0	0	0	
6	0	0	0	0	0	509	0	0	0	0	
7	0	0	0	0	0	510	0	0	0	0	
8	0	0	0	0	0	511	0	0	0	0	
9	0	0	0	0	0	511	0	0	0	0	
10	0	0	0	0	0	512	0	0	0	0	
11	0	0	0	0	1	512	0	0	0	0	
12	0	0	0	0	0	513	0	0	0	0	
13	0	0	0	0	0	514	0	0	0	0	
14	0	0	0	0	0	514	0	0	0	0	
15	0	0	0	0	0	514	0	0	0	0	
0	0	0	0	0	0	515	0	0	0	0	
1	0	0	0	0	0	515	0	0	0	0	
2	0	0	0	0	0	516	0	0	0	0	
3	0	0	0	0	1	518	0	0	0	0	
4	0	0	0	0	0	519	0	0	0	0	
5	0	0	0	0	0	520	0	0	0	0	
6	0	0	0	0	0	520	0	0	0	0	
7	0	0	0	0	0	521	0	0	0	0	
8	0	0	0	0	0	523	0	0	0	0	
9	0	0	0	0	0	524	0	0	0	0	
10	0	0	0	0	0	524	0	0	0	0	
11	0	0	0	0	1	525	0	0	0	0	
12	0	0	0	0	0	525	0	0	0	0	
13	0	0	0	0	0	526	0	0	0	0	
14	0	0	0	0	0	527	0	0	0	0	
15	0	0	0	0	0	527	0	0	0	0	
0	0	0	0	0	0	527	0	0	0	0	
1	0	0	0	0	0	528	0	0	0	0	
2	0	0	0	0	0	529	0	0	0	0	
3	0	0	0	0	1	529	0	0	0	0	
4	0	0	0	0	0	529	0	0	0	0	
5	0	0	0	0	0	530	0	0	0	0	
6	0	0	0	0	0	529	0	0	0	0	
7	0	0	0	0	0	530	0	0	0	0	
8	0	0	0	0	0	530	0	0	0	0	
9	0	0	0	0	0	531	0	0	0	0	
10	0	0	0	0	0	531	0	0	0	0	
11	0	0	0	0	1	532	0	0	0	0	
12	0	0	0	0	0	533	0	0	0	0	
13	0	0	0	0	0	533	0	0	0	0	
14	0	0	0	0	0	533	0	0	0	0	
15	0	0	0	0	0	533	0	0	0	0	
0	0	0	0	0	0	534	0	0	0	0	
1	0	0	0	0	0	534	0	0	0	0	
2	0	0	0	0	0	534	0	0	0	0	
3	0	0	0	0	1	535	0	0	0	0	
4	0	0	0	0	0	535	0	0	0	0	
5	0	0	0	0	0	535	0	0	0	0	
6	0	0	0	0	0	536	0	0	0	0	
7	0	0	0	0	0	536	0	0	0	0	
8	0	0	0	0	0	535	0	0	0	0	
9	0	0	0	0	0	535	0	0	0	0	
10	0	0	0	0	0	534	0	0	0	0	
11	0	0	0	0	1	534	0	0	0	0	
12	0	0	0	0	0	534	0	0	0	0	
13	0	0	0	0	0	534	0	0	0	0	
14	0	0	0	0	0	533	0	0	0	0	
15	0	0	0	0	0	533	0	0	0	0	
0	0	0	0	0	0	533	0	0	0	0	
1	0	0	0	0	0	533	0	0	0	0	
2	0	0	0	0	0	534	0	0	0	0	
3	0	0	0	0	1	535	0	0	0	0	
4	0	0	0	0	0	536	0	0	0	0	
5	0	0	0	0	0	536	0	0	0	0	
6	0	0	0	0	0	535	0	0	0	0	
7	0	0	0	0	0	534	0	0	0	0	
8	0	0	0	0	0	533	0	0	0	0	
9	0	0	0	0	0	534	0	0	0	0	
10	0	0	0	0	0	534	0	0	0	0	
11	0	0	0	0	1	534	0	0	0	0	
12	0	0	0	0	0	533	0	0	0	0	
13	0	0	0	0	0	534	0	0	0	0	
14	0	0	0	0	0	534	0	0	0	0	
15	0	0	0	0	0	534	0	0	0	0	
0	0	0	0	0	0	533	0	0	0	0	
1	0	0	0	0	0	532	0	0	0	0	
2	0	0	0	0	0	532	0	0	0	0	
3	0	0	0	0	1	533	0	0	0	0	
4	0	0	0	0	0	533	0	0	0	0	
5	0	0	0	0	0	532	0	0	0	0	
6	0	0	0	0	0	532	0	0	0	0	
7	0	0	0	0	0	532	0	0	0	0	
8	0	0	0	0	0	532	0	0	0	0	
9	0	0	0	0	0	531	0	0	0	0	
10	0	0	0	0	0	531	0	0	0	0	
11	0	0	0	0	1	531	0	0	0	0	
12	0	0	0	0	0	530	0	0	0	0	
13	0	0	0	0	0	530	0	0	0	0	
14	0	0	0	0	0	530	0	0	0	0	
15	0	0	0	0	0	530	0	0	0	0	
0	0	0	0	0	0	529	0	0	0	0	
1	0	0	0	0	0	530	0	0	0	0	
2	0	0	0	0	0	530	0	0	0	0	
3	0	0	0	0	1	530	0	0	0	0	
4	0	0	0	0	0	530	0	0	0	0	
5	0	0	0	0	0	530	0	0	0	0	
6	0	0	0	0	0	529	0	0	0	0	
7	0	0	0	0	0	528	0	0	0	0	
8	0	0	0	0	0	528	0	0	0	0	
9	0	0	0	0	0	528	0	0	0	0	
10	0	0	0	0	0	528	0	0	0	0	
11	0	0	0	0	1	528	0	0	0	0	
12	0	0	0	0	0	528	0	0	0	0	
13	0	0	0	0	0	528	0	0	0	0	
14	0	0	0	0	0	527	0	0	0	0	
15	0	0	0	0	0	527	0	0	0	0	
0	0	0	0	0	0	527	0	0	0	0	
1	0	0	0	0	0	527	0	0	0	0	
2	0	0	0	0	0	527	0	0	0	0	
3	0	0	0	0	1	526	0	0	0	0	
4	0	0	0	0	0	527	0	0	0	0	
5	0	0	0	0	0	528	0	0	0	0	
6	0	0	0	0	0	528	0	0	0	0	
7	0	0	0	0	0	527	0	0	0	0	
8	0	0	0	0	0	527	0	0	0	0	
9	0	0	0	0	0	527	0	0	0	0	
10	0	0	0	0	0	527	0	0	0	0	
11	0	0	0	0	1	526	0	0	0	0	
12	0	0	0	0	0	526	0	0	0	0	
13	0	0	0	0	0	525	0	0	0	0	
14	0	0	0	0	0	525	0	0	0	0	
15	0	0	0	0	0	524	0	0	0	0	
0	0	0	0	0	0	524	0	0	0	0	
1	0	0	0	0	0	523	0	0	0	0	
2	0	0	0	0	0	521	0	0	0	0	
3	0	0	0	0	1	520	0	0	0	0	
4	0	0	0	0	0	519	0	0	0	0	
5	0	0	0	0	0	518	0	0	0	0	
6	0	0	0	0	0	519	0	0	0	0	
7	0	0	0	0	0	519	0	0	0	0	
8	0	0	0	0	0	518	0	0	0	0	
9	0	0	0	0	0	517	0	0	0	0	
10	0	0	0	0	0	516	0	0	0	0	
11	0	0	0	0	1	515	0	0	0	0	
12	0	0	0	0	0	515	0	0	0	0	
13	0	0	0	0	0	513	0	0	0	0	
14	0	0	0	0	0	513	0	0	0	0	
15	0	0	0	0	0	512	0	0	0	0	
0	0	0	0	0	0	512	0	0	0	0	
1	0	0	0	0	0	512	0	0	0	0	
2	0	0	0	0	0	511	0	0	0	0	
3	0	0	0	0	1	510	0	0	0	0	
4	0	0	0	0	0	509	0	0	0	0	
5	0	0	0	0	0	508	0	0	0	0	
6	0	0	0	0	0	506	0	0	0	0	
7	0	0	0	0	0	505	0	0	0	0	
8	0	0	0	0	0	505	0	0	0	0	
9	0	0	0	0	0	504	0	0	0	0	
10	0	0	0	0	0	503	0	0	0	0	
11	0	0	0	0	1	502	0	0	0	0	
12	0	0	0	0	0	502	0	0	0	0	
13	0	0	0	0	0	501	0	0	0	0	
14	0	0	0	0	0	500	0	0	0	0	
15	0	0	0	0	0	500	0	0	0	0	
0	0	0	0	0	0	498	0	0	0	0	
1	0	0	0	0	0	497	0	0	0	0	
2	0	0	0	0	0	496	0	0	0	0	
3	0	0	0	0	0	495	0	0	0	0	
4	0	0	0	0	0	494	0	0	0	0	
5	0	0	0	0	0	494	0	0	0	0	
6	0	0	0	0	0	493	0	0	0	0	
7	0	0	0	0	0	492	0	0	0	0	
8	0	0	0	0	0	491	0	0	0	0	
9	0	0	0	0	0	491	0	0	0	0	
10	0	0	0	0	0	489	0	0	0	0	
11	0	0	0	0	0	489	0	0	0	0	
12	0	0	0	0	0	488	0	0	0	0	
13	0	0	0	0	0	487	0	0	0	0	
14	0	0	0	0	0	486	0	0	0	0	
15	0	0	0	0	0	486	0	0	0	0	
0	0	0	0	0	0	486	0	0	0	0	
1	0	0	0	0	0	484	0	0	0	0	
2	0	0	0	0	0	483	0	0	0	0	
3	0	0	0	0	0	484	0	0	0	0	
4	0	0	0	0	0	484	0	0	0	0	
5	0	0	0	0	0	483	0	0	0	0	
6	0	0	0	0	0	483	0	0	0	0	
7	0	0	0	0	0	483	0	0	0	0	
8	0	0	0	0	0	482	0	0	0	0	
9	0	0	0	0	0	482	0	0	0	0	
10	0	0	0	0	0	481	0	0	0	0	
11	0	0	0	0	1	480	0	0	0	0	
12	0	0	0	0	0	481	0	0	0	0	
13	0	0	0	0	0	481	0	0	0	0	
14	0	0	0	0	0	481	0	0	0	0	
15	0	0	0	0	0	482	0	0	0	0	
0	0	0	0	0	0	482	0	0	0	0	
1	0	0	0	0	0	482	0	0	0	0	
2	0	0	0	0	0	481	0	0	0	0	
3	0	0	0	0	1	481	0	0	0	0	
4	0	0	0	0	0	481	0	0	0	0	
5	0	0	0	0	0	481	0	0	0	0	
6	0	0	0	0	0	480	0	0	0	0	
7	0	0	0	0	0	480	0	0	0	0	
8	0	0	0	0	0	480	0	0	0	0	
9	0	0	0	0	0	480	0	0	0	0	
10	0	0	0	0	0	481	0	0	0	0	
11	0	0	0	0	1	481	0	0	0	0	
12	0	0	0	0	0	481	0	0	0	0	
13	0	0	0	0	0	481	0	0	0	0	
14	0	0	0	0	0	482	0	0	0	0	
15	0	0	0	0	0	483	0	0	0	0	
0	0	0	0	0	0	484	0	0	0	0	
1	0	0	0	0	0	486	0	0	0	0	
2	0	0	0	0	0	486	0	0	0	0	
3	0	0	0	0	1	487	0	0	0	0	
4	0	0	0	0	0	487	0	0	0	0	
5	0	0	0	0	0	487	0	0	0	0	
6	0	0	0	0	0	488	0	0	0	0	
7	0	0	0	0	0	489	0	0	0	0	
8	0	0	0	0	0	488	0	0	0	0	
9	0	0	0	0	0	488	0	0	0	0	
10	0	0	0	0	0	487	0	0	0	0	
11	0	0	0	0	1	488	0	0	0	0	
12	0	0	0	0	0	488	0	0	0	0	
13	0	0	0	0	0	489	0	0	0	0	
14	0	0	0	0	0	490	0	0	0	0	
15	0	0	0	0	0	491	0	0	0	0	
0	0	0	0	0	0	491	0	0	0	0	
1	0	0	0	0	0	491	0	0	0	0	
2	0	0	0	0	0	490	0	0	0	0	
3	0	0	0	0	1	490	0	0	0	0	
4	0	0	0	0	0	491	0	0	0	0	
5	0	0	0	0	0	491	0	0	0	0	
6	0	0	0	0	0	492	0	0	0	0	
7	0	0	0	0	0	494	0	0	0	0	
8	0	0	0	0	0	495	0	0	0	0	
9	0	0	0	0	0	495	0	0	0	0	
10	0	0	0	0	0	495	0	0	0	0	
11	0	0	0	0	1	495	0	0	0	0	
12	0	0	0	0	0	495	0	0	0	0	
13	0	0	0	0	0	496	0	0	0	0	
14	0	0	0	0	0	496	0	0	0	0	
15	0	0	0	0	0	497	0	0	0	0	
0	0	0	0	0	0	496	0	0	0	0	
1	0	0	0	0	0	497	0	0	0	0	
2	0	0	0	0	0	497	0	0	0	0	
3	0	0	0	0	1	497	0	0	0	0	
4	0	0	0	0	0	497	0	0	0	0	
5	0	0	0	0	0	497	0	0	0	0	
6	0	0	0	0	0	497	0	0	0	0	
7	0	0	0	0	0	497	0	0	0	0	
8	0	0	0	0	0	498	0	0	0	0	
9	0	0	0	0	0	498	0	0	0	0	
10	0	0	0	0	0	499	0	0	0	0	
11	0	0	0	0	1	499	0	0	0	0	
12	0	0	0	0	0	500	0	0	0	0	
13	0	0	0	0	0	500	0	0	0	0	
14	0	0	0	0	0	500	0	0	0	0	
15	0	0	0	0	0	500	0	0	0	0	
0	0	0	0	0	0	501	0	0	0	0	
1	0	0	0	0	0	502	0	0	0	0	
2	0	0	0	0	0	503	0	0	0	0	
3	0	0	0	0	1	504	0	0	0	0	
4	0	0	0	0	0	505	0	0	0	0	
5	0	0	0	0	0	504	0	0	0	0	
6	0	0	0	0	0	504	0	0	0	0	
7	0	0	0	0	0	504	0	0	0	0	
8	0	0	0	0	0	504	0	0	0	0	
9	0	0	0	0	0	504	0	0	0	0	
10	0	0	0	0	0	505	0	0	0	0	
11	0	0	0	0	1	505	0	0	0	0	
12	0	0	0	0	0	505	0	0	0	0	
13	0	0	0	0	0	504	0	0	0	0	
14	0	0	0	0	0	504	0	0	0	0	
15	0	0	0	0	0	504	0	0	0	0	
0	0	0	0	0	0	503	0	0	0	0	
1	0	0	0	0	0	503	0	0	0	0	
2	0	0	0	0	0	503	0	0	0	0	
3	0	0	0	0	1	504	0	0	0	0	
4	0	0	0	0	0	504	0	0	0	0	
5	0	0	0	0	0	505	0	0	0	0	
6	0	0	0	0	0	505	0	0	0	0	
7	0	0	0	0	0	507	0	0	0	0	
8	0	0	0	0	0	507	0	0	0	0	
9	0	0	0	0	0	507	0	0	0	0	
10	0	0	0	0	0	507	0	0	0	0	
11	0	0	0	0	1	507	0	0	0	0	
12	0	0	0	0	0	508	0	0	0	0	
13	0	0	0	0	0	508	0	0	0	0	
14	0	0	0	0	0	509	0	0	0	0	
15	0	0	0	0	0	509	0	0	0	0	
0	0	0	0	0	0	508	0	0	0	0	
1	0	0	0	0	0	508	0	0	0	0	
2	0	0	0	0	0	508	0	0	0	0	
3	0	0	0	0	1	508	0	0	0	0	
4	0	0	0	0	0	507	0	0	0	0	
5	0	0	0	0	0	507	0	0	0	0	
6	0	0	0	0	0	507	0	0	0	0	
7	0	0	0	0	0	508	0	0	0	0	
8	0	0	0	0	0	508	0	0	0	0	
9	0	0	0	0	0	508	0	0	0	0	
10	0	0	0	0	0	508	0	0	0	0	
11	0	0	0	0	1	509	0	0	0	0	
12	0	0	0	0	0	508	0	0	0	0	
13	0	0	0	0	0	508	0	0	0	0	
14	0	0	0	0	0	508	0	0	0	0	
15	0	0	0	0	0	508	0	0	0	0	
0	0	0	0	0	0	508	0	0	0	0	
1	0	0	0	0	0	508	0	0	0	0	
2	0	0	0	0	0	508	0	0	0	0	
3	0	0	0	0	1	508	0	0	0	0	
4	0	0	0	0	0	508	0	0	0	0	
5	0	0	0	0	0	508	0	0	0	0	
6	0	0	0	0	0	508	0	0	0	0	
7	0	0	0	0	0	509	0	0	0	0	
8	0	0	0	0	0	509	0	0	0	0	
9	0	0	0	0	0	509	0	0	0	0	
10	0	0	0	0	0	510	0	0	0	0	
11	0	0	0	0	1	509	0	0	0	0	
12	0	0	0	0	0	510	0	0	0	0	
13	0	0	0	0	0	510	0	0	0	0	
14	0	0	0	0	0	509	0	0	0	0	
15	0	0	0	0	0	508	0	0	0	0	
0	0	0	0	0	0	508	0	0	0	0	
1	0	0	0	0	0	507	0	0	0	0	
2	0	0	0	0	0	507	0	0	0	0	
3	0	0	0	0	1	507	0	0	0	0	
4	0	0	0	0	0	507	0	0	0	0	
5	0	0	0	0	0	507	0	0	0	0	
6	0	0	0	0	0	507	0	0	0	0	
7	0	0	0	0	0	507	0	0	0	0	
8	0	0	0	0	0	507	0	0	0	0	
9	0	0	0	0	0	508	0	0	0	0	
10	0	0	0	0	0	507	0	0	0	0	
11	0	0	0	0	1	507	0	0	0	0	
12	0	0	0	0	0	508	0	0	0	0	
13	0	0	0	0	0	508	0	0	0	0	
14	0	0	0	0	0	508	0	0	0	0	
15	0	0	0	0	0	508	0	0	0	0	
0	0	0	0	0	0	508	0	0	0	0	
1	0	0	0	0	0	508	0	0	0	0	
2	0	0	0	0	0	508	0	0	0	0	
3	0	0	0	0	1	508	0	0	0	0	
4	0	0	0	0	0	507	0	0	0	0	
5	0	0	0	0	0	507	0	0	0	0	
6	0	0	0	0	0	505	0	0	0	0	
7	0	0	0	0	0	505	0	0	0	0	
8	0	0	0	0	0	506	0	0	0	0	
9	0	0	0	0	0	507	0	0	0	0	
10	0	0	0	0	0	507	0	0	0	0	
11	0	0	0	0	1	508	0	0	0	0	
12	0	0	0	0	0	508	0	0	0	0	
13	0	0	0	0	0	508	0	0	0	0	
14	0	0	0	0	0	508	0	0	0	0	
15	0	0	0	0	0	508	0	0	0	0	
0	0	0	0	0	0	508	0	0	0	0	
1	0	0	0	0	0	508	0	0	0	0	
2	0	0	0	0	0	509	0	0	0	0	
3	0	0	0	0	1	508	0	0	0	0	
4	0	0	0	0	0	508	0	0	0	0	
5	0	0	0	0	0	508	0	0	0	0	
6	0	0	0	0	0	508	0	0	0	0	
7	0	0	0	0	0	508	0	0	0	0	
8	0	0	0	0	0	507	0	0	0	0	
9	0	0	0	0	0	507	0	0	0	0	
10	0	0	0	0	0	507	0	0	0	0	
11	0	0	0	0	1	506	0	0	0	0	
12	0	0	0	0	0	506	0	0	0	0	
13	0	0	0	0	0	506	0	0	0	0	
14	0	0	0	0	0	506	0	0	0	0	
15	0	0	0	0	0	506	0	0	0	0	
0	0	0	0	0	0	506	0	0	0	0	
1	0	0	0	0	0	507	0	0	0	0	
2	0	0	0	0	0	507	0	0	0	0	
3	0	0	0	0	1	508	0	0	0	0	
4	0	0	0	0	0	508	0	0	0	0	
5	0	0	0	0	0	508	0	0	0	0	
6	0	0	0	0	0	509	0	0	0	0	
7	0	0	0	0	0	511	0	0	0	0	
8	0	0	0	0	0	510	0	0	0	0	
9	0	0	0	0	0	509	0	0	0	0	
10	0	0	0	0	0	510	0	0	0	0	
11	0	0	0	0	1	510	0	0	0	0	
12	0	0	0	0	0	510	0	0	0	0	
13	0	0	0	0	0	510	0	0	0	0	
14	0	0	0	0	0	511	0	0	0	0	
15	0	0	0	0	0	511	0	0	0	0	
0	0	0	0	0	0	512	0	0	0	0	
1	0	0	0	0	0	511	0	0	0	0	
2	0	0	0	0	0	512	0	0	0	0	
3	0	0	0	0	0	512	0	0	0	0	
4	0	0	0	0	0	512	0	0	0	0	
5	0	0	0	0	0	513	0	0	0	0	
6	0	0	0	0	0	513	0	0	0	0	
7	0	0	0	0	0	514	0	0	0	0	
8	0	0	0	0	0	514	0	0	0	0	
9	0	0	0	0	0	513	0	0	0	0	
10	0	0	0	0	0	513	0	0	0	0	
11	0	0	0	0	0	513	0	0	0	0	
12	0	0	0	0	0	514	0	0	0	0	
13	0	0	0	0	0	514	0	0	0	0	
14	0	0	0	0	0	514	0	0	0	0	
15	0	0	0	0	0	514	0	0	0	0	
0	0	0	0	0	0	514	0	0	0	0	
1	0	0	0	0	0	514	0	0	0	0	
2	0	0	0	0	0	514	0	0	0	0	
3	0	0	0	0	1	513	0	0	0	0	
4	0	0	0	0	0	514	0	0	0	0	
5	0	0	0	0	0	514	0	0	0	0	
6	0	0	0	0	0	514	0	0	0	0	
7	0	0	0	0	0	513	0	0	0	0	
8	0	0	0	0	0	513	0	0	0	0	
9	0	0	0	0	0	513	0	0	0	0	
10	0	0	0	0	0	513	0	0	0	0	
11	0	0	0	0	1	514	0	0	0	0	
12	0	0	0	0	0	513	0	0	0	0	
13	0	0	0	0	0	513	0	0	0	0	
14	0	0	0	0	0	514	0	0	0	0	
15	0	0	0	0	0	514	0	0	0	0	
0	0	0	0	0	0	513	0	0	0	0	
1	0	0	0	0	0	513	0	0	0	0	
2	0	0	0	0	0	513	0	0	0	0	
3	0	0	0	0	1	512	0	0	0	0	
4	0	0	0	0	0	512	0	0	0	0	
5	0	0	0	0	0	512	0	0	0	0	
6	0	0	0	0	0	513	0	0	0	0	
7	0	0	0	0	0	512	0	0	0	0	
8	0	0	0	0	0	512	0	0	0	0	
9	0	0	0	0	0	511	0	0	0	0	
10	0	0	0	0	0	511	0	0	0	0	
11	0	0	0	0	1	511	0	0	0	0	
12	0	0	0	0	0	510	0	0	0	0	
13	0	0	0	0	0	510	0	0	0	0	
14	0	0	0	0	0	510	0	0	0	0	
15	0	0	0	0	0	511	0	0	0	0	
0	0	0	0	0	0	511	0	0	0	0	
1	0	0	0	0	0	511	0	0	0	0	
2	0	0	0	0	0	511	0	0	0	0	
3	0	0	0	0	1	511	0	0	0	0	
4	0	0	0	0	0	511	0	0	0	0	
5	0	0	0	0	0	511	0	0	0	0	
6	0	0	0	0	0	512	0	0	0	0	
7	0	0	0	0	0	512	0	0	0	0	
8	0	0	0	0	0	513	0	0	0	0	
9	0	0	0	0	0	514	0	0	0	0	
10	0	0	0	0	0	513	0	0	0	0	
11	0	0	0	0	1	513	0	0	0	0	
12	0	0	0	0	0	514	0	0	0	0	
13	0	0	0	0	0	515	0	0	0	0	
14	0	0	0	0	0	515	0	0	0	0	
15	0	0	0	0	0	515	0	0	0	0	
0	0	0	0	0	0	515	0	0	0	0	
1	0	0	0	0	0	516	0	0	0	0	
2	0	0	0	0	0	516	0	0	0	0	
3	0	0	0	0	1	516	0	0	0	0	
4	0	0	0	0	0	516	0	0	0	0	
5	0	0	0	0	0	516	0	0	0	0	
6	0	0	0	0	0	516	0	0	0	0	
7	0	0	0	0	0	516	0	0	0	0	
8	0	0	0	0	0	516	0	0	0	0	
9	0	0	0	0	0	516	0	0	0	0	
10	0	0	0	0	0	516	0	0	0	0	
11	0	0	0	0	1	515	0	0	0	0	
12	0	0	0	0	0	516	0	0	0	0	
13	0	0	0	0	0	516	0	0	0	0	
14	0	0	0	0	0	516	0	0	0	0	
15	0	0	0	0	0	517	0	0	0	0	
0	0	0	0	0	0	518	0	0	0	0	
1	0	0	0	0	0	517	0	0	0	0	
2	0	0	0	0	0	518	0	0	0	0	
3	0	0	0	0	1	518	0	0	0	0	
4	0	0	0	0	0	518	0	0	0	0	
5	0	0	0	0	0	518	0	0	0	0	
6	0	0	0	0	0	519	0	0	0	0	
7	0	0	0	0	0	520	0	0	0	0	
8	0	0	0	0	0	522	0	0	0	0	
9	0	0	0	0	0	523	0	0	0	0	
10	0	0	0	0	0	524	0	0	0	0	
11	0	0	0	0	1	525	0	0	0	0	
12	0	0	0	0	0	526	0	0	0	0	
13	0	0	0	0	0	527	0	0	0	0	
14	0	0	0	0	0	527	0	0	0	0	
15	0	0	0	0	0	528	0	0	0	0	
0	0	0	0	0	0	530	0	0	0	0	
1	0	0	0	0	0	531	0	0	0	0	
2	0	0	0	0	0	532	0	0	0	0	
3	0	0	0	0	1	534	0	0	0	0	
4	0	0	0	0	0	536	0	0	0	0	
5	0	0	0	0	0	536	0	0	0	0	
6	0	0	0	0	0	538	0	0	0	0	
7	0	0	0	0	0	540	0	0	0	0	
8	0	0	0	0	0	541	0	0	0	0	
9	0	0	0	0	0	542	0	0	0	0	
10	0	0	0	0	0	543	0	0	0	0	
11	0	0	0	0	1	542	0	0	0	0	
12	0	0	0	0	0	542	0	0	0	0	
13	0	0	0	0	0	541	0	0	0	0	
14	0	0	0	0	0	540	0	0	0	0	
15	0	0	0	0	0	540	0	0	0	0	
0	0	0	0	0	0	540	0	0	0	0	
1	0	0	0	0	0	540	0	0	0	0	
2	0	0	0	0	0	540	0	0	0	0	
3	0	0	0	0	1	540	0	0	0	0	
4	0	0	0	0	0	540	0	0	0	0	
5	0	0	0	0	0	540	0	0	0	0	
6	0	0	0	0	0	540	0	0	0	0	
7	0	0	0	0	0	541	0	0	0	0	
8	0	0	0	0	0	542	0	0	0	0	
9	0	0	0	0	0	542	0	0	0	0	
10	0	0	0	0	0	542	0	0	0	0	
11	0	0	0	0	1	543	0	0	0	0	
12	0	0	0	0	0	544	0	0	0	0	
13	0	0	0	0	0	545	0	0	0	0	
14	0	0	0	0	0	546	0	0	0	0	
15	0	0	0	0	0	546	0	0	0	0	
0	0	0	0	0	0	546	0	0	0	0	
1	0	0	0	0	0	546	0	0	0	0	
2	0	0	0	0	0	547	0	0	0	0	
3	0	0	0	0	1	547	0	0	0	0	
4	0	0	0	0	0	547	0	0	0	0	
5	0	0	0	0	0	547	0	0	0	0	
6	0	0	0	0	0	546	0	0	0	0	
7	0	0	0	0	0	546	0	0	0	0	
8	0	0	0	0	0	544	0	0	0	0	
9	0	0	0	0	0	543	0	0	0	0	
10	0	0	0	0	0	543	0	0	0	0	
11	0	0	0	0	1	541	0	0	0	0	
12	0	0	0	0	0	539	0	0	0	0	
13	0	0	0	0	0	538	0	0	0	0	
14	0	0	0	0	0	536	0	0	0	0	
15	0	0	0	0	0	536	0	0	0	0	
0	0	0	0	0	0	535	0	0	0	0	
1	0	0	0	0	0	535	0	0	0	0	
2	0	0	0	0	0	533	0	0	0	0	
3	0	0	0	0	1	534	0	0	0	0	
4	0	0	0	0	0	535	0	0	0	0	
5	0	0	0	0	0	535	0	0	0	0	
6	0	0	0	0	0	535	0	0	0	0	
7	0	0	0	0	0	534	0	0	0	0	
8	0	0	0	0	0	535	0	0	0	0	
9	0	0	0	0	0	536	0	0	0	0	
10	0	0	0	0	0	536	0	0	0	0	
11	0	0	0	0	1	536	0	0	0	0	
12	0	0	0	0	0	536	0	0	0	0	
13	0	0	0	0	0	535	0	0	0	0	
14	0	0	0	0	0	535	0	0	0	0	
15	0	0	0	0	0	534	0	0	0	0	
0	0	0	0	0	0	534	0	0	0	0	
1	0	0	0	0	0	534	0	0	0	0	
2	0	0	0	0	0	533	0	0	0	0	
3	0	0	0	0	1	532	0	0	0	0	
4	0	0	0	0	0	530	0	0	0	0	
5	0	0	0	0	0	529	0	0	0	0	
6	0	0	0	0	0	527	0	0	0	0	
7	0	0	0	0	0	525	0	0	0	0	
8	0	0	0	0	0	523	0	0	0	0	
9	0	0	0	0	0	520	0	0	0	0	
10	0	0	0	0	0	518	0	0	0	0	
11	0	0	0	0	1	515	0	0	0	0	
12	0	0	0	0	0	513	0	0	0	0	
13	0	0	0	0	0	512	0	0	0	0	
14	0	0	0	0	0	509	0	0	0	0	
15	0	0	0	0	0	508	0	0	0	0	
0	0	0	0	0	0	506	0	0	0	0	
1	0	0	0	0	0	504	0	0	0	0	
2	0	0	0	0	0	503	0	0	0	0	
3	0	0	0	0	1	502	0	0	0	0	
4	0	0	0	0	0	502	0	0	0	0	
5	0	0	0	0	0	502	0	0	0	0	
6	0	0	0	0	0	502	0	0	0	0	
7	0	0	0	0	0	502	0	0	0	0	
8	0	0	0	0	0	502	0	0	0	0	
9	0	0	0	0	0	502	0	0	0	0	
10	0	0	0	0	0	502	0	0	0	0	
11	0	0	0	0	1	502	0	0	0	0	
12	0	0	0	0	0	502	0	0	0	0	
13	0	0	0	0	0	501	0	0	0	0	
14	0	0	0	0	0	501	0	0	0	0	
15	0	0	0	0	0	500	0	0	0	0	
0	0	0	0	0	0	500	0	0	0	0	
1	0	0	0	0	0	500	0	0	0	0	
2	0	0	0	0	0	499	0	0	0	0	
3	0	0	0	0	1	500	0	0	0	0	
4	0	0	0	0	0	500	0	0	0	0	
5	0	0	0	0	0	500	0	0	0	0	
6	0	0	0	0	0	500	0	0	0	0	
7	0	0	0	0	0	500	0	0	0	0	
8	0	0	0	0	0	501	0	0	0	0	
9	0	0	0	0	0	500	0	0	0	0	
10	0	0	0	0	0	501	0	0	0	0	
11	0	0	0	0	1	501	0	0	0	0	
12	0	0	0	0	0	502	0	0	0	0	
13	0	0	0	0	0	503	0	0	0	0	
14	0	0	0	0	0	503	0	0	0	0	
15	0	0	0	0	0	503	0	0	0	0	
0	0	0	0	0	0	503	0	0	0	0	
1	0	0	0	0	0	502	0	0	0	0	
2	0	0	0	0	0	502	0	0	0	0	
3	0	0	0	0	1	502	0	0	0	0	
4	0	0	0	0	0	502	0	0	0	0	
5	0	0	0	0	0	502	0	0	0	0	
6	0	0	0	0	0	502	0	0	0	0	
7	0	0	0	0	0	502	0	0	0	0	
8	0	0	0	0	0	501	0	0	0	0	
9	0	0	0	0	0	501	0	0	0	0	
10	0	0	0	0	0	501	0	0	0	0	
11	0	0	0	0	0	502	0	0	0	0	
12	0	0	0	0	0	502	0	0	0	0	
13	0	0	0	0	0	502	0	0	0	0	
14	0	0	0	0	0	502	0	0	0	0	
15	0	0	0	0	0	502	0	0	0	0	
0	0	0	0	0	0	502	0	0	0	0	
1	0	0	0	0	0	502	0	0	0	0	
2	0	0	0	0	0	503	0	0	0	0	
3	0	0	0	0	0	503	0	0	0	0	
4	0	0	0	0	0	503	0	0	0	0	
5	0	0	0	0	0	503	0	0	0	0	
6	0	0	0	0	0	504	0	0	0	0	
7	0	0	0	0	0	504	0	0	0	0	
8	0	0	0	0	0	505	0	0	0	0	
9	0	0	0	0	0	505	0	0	0	0	
10	0	0	0	0	0	505	0	0	0	0	
11	0	0	0	0	0	505	0	0	0	0	
12	0	0	0	0	0	505	0	0	0	0	
13	0	0	0	0	0	505	0	0	0	0	
14	0	0	0	0	0	505	0	0	0	0	
15	0	0	0	0	0	505	0	0	0	0	
0	0	0	0	0	0	505	0	0	0	0	
1	0	0	0	0	0	504	0	0	0	0	
2	0	0	0	0	0	503	0	0	0	0	
3	0	0	0	0	1	502	0	0	0	0	
4	0	0	0	0	0	501	0	0	0	0	
5	0	0	0	0	0	499	0	0	0	0	
6	0	0	0	0	0	497	0	0	0	0	
7	0	0	0	0	0	496	0	0	0	0	
8	0	0	0	0	0	494	0	0	0	0	
9	0	0	0	0	0	492	0	0	0	0	
10	0	0	0	0	0	492	0	0	0	0	
11	0	0	0	0	1	492	0	0	0	0	
12	0	0	0	0	0	494	0	0	0	0	
13	0	0	0	0	0	498	0	0	0	0	
14	0	0	0	0	0	503	0	0	0	0	
15	0	0	0	0	0	508	0	0	0	0	
0	0	0	0	0	0	515	0	0	0	0	
1	0	0	0	0	0	523	0	0	0	0	
2	0	0	0	0	0	533	0	0	0	0	
3	0	0	0	0	1	543	0	0	0	0	
4	0	0	0	0	0	554	0	0	0	0	
5	0	0	0	0	0	567	0	0	0	0	
6	0	0	0	0	0	579	0	0	0	0	
7	0	0	0	0	0	592	0	0	0	0	
8	0	0	0	0	0	607	0	0	0	0	
9	0	0	0	0	0	622	0	0	0	0	
10	0	0	0	0	0	638	0	0	0	0	
11	0	0	0	0	1	657	1	0	0	0	
12	0	0	0	0	0	676	1	0	0	0	
13	0	0	0	0	0	696	1	0	0	0	
14	0	0	0	0	0	719	1	0	0	0	
15	0	0	0	0	0	744	1	0	0	0	
0	0	0	0	0	0	771	1	0	0	0	
1	0	0	0	0	0	799	1	0	0	0	
2	0	0	0	0	0	829	1	0	0	0	
3	0	0	0	0	1	859	2	0	0	0	
4	0	0	0	0	0	889	2	0	0	0	
5	0	0	0	0	0	916	2	0	0	0	
6	0	0	0	0	0	942	2	0	0	0	
7	0	0	0	0	0	966	3	0	0	0	
8	0	0	0	0	0	988	3	0	0	0	
9	0	0	0	0	0	1006	3	0	0	0	
10	0	0	0	0	0	1020	3	0	0	0	
11	0	0	0	0	1	1022	3	0	0	0	
12	0	0	0	0	0	1022	3	0	0	0	
13	0	0	0	0	0	1022	3	0	0	0	
14	0	0	0	0	0	1022	3	0	0	0	
15	0	0	0	0	0	1010	3	0	0	0	
0	0	0	0	0	0	984	3	0	0	0	
1	0	0	0	0	0	952	2	0	0	0	
2	0	0	0	0	0	912	2	0	0	0	
3	0	0	0	0	1	866	2	0	0	0	
4	0	0	0	0	0	815	1	0	0	0	
5	0	0	0	0	0	762	1	0	0	0	
6	0	0	0	0	0	709	1	0	0	0	
7	0	0	0	0	0	659	1	0	0	0	
8	0	0	0	0	0	612	0	0	0	0	
9	0	0	0	0	0	568	0	0	0	0	
10	0	0	0	0	0	528	0	0	0	0	
11	0	0	0	0	1	492	0	0	0	0	
12	0	0	0	0	0	457	0	0	0	0	
13	0	0	0	0	0	427	0	0	0	0	
14	0	0	0	0	0	400	0	0	0	0	
15	0	0	0	0	0	378	0	0	0	0	
0	0	0	0	0	0	357	0	0	0	0	
1	0	0	0	0	0	340	0	0	0	0	
2	0	0	0	0	0	324	0	0	0	0	
3	0	0	0	0	1	310	0	0	0	0	
4	0	0	0	0	0	297	0	0	0	0	
5	0	0	0	0	0	286	0	0	0	0	
6	0	0	0	0	0	276	0	0	0	0	
7	0	0	0	0	0	268	0	0	0	0	
8	0	0	0	0	0	263	0	0	0	0	
9	0	0	0	0	0	261	0	0	0	0	
10	0	0	0	0	0	262	0	0	0	0	
11	0	0	0	0	1	266	0	0	0	0	
12	0	0	0	0	0	273	0	0	0	0	
13	0	0	0	0	0	283	0	0	0	0	
14	0	0	0	0	0	294	0	0	0	0	
15	0	0	0	0	0	305	0	0	0	0	
0	0	0	0	0	0	315	0	0	0	0	
1	0	0	0	0	0	326	0	0	0	0	
2	0	0	0	0	0	336	0	0	0	0	
3	0	0	0	0	1	345	0	0	0	0	
4	0	0	0	0	0	356	0	0	0	0	
5	0	0	0	0	0	366	0	0	0	0	
6	0	0	0	0	0	376	0	0	0	0	
7	0	0	0	0	0	384	0	0	0	0	
8	0	0	0	0	0	389	0	0	0	0	
9	0	0	0	0	0	395	0	0	0	0	
10	0	0	0	0	0	400	0	0	0	0	
11	0	0	0	0	1	404	0	0	0	0	
12	0	0	0	0	0	408	0	0	0	0	
13	0	0	0	0	0	410	0	0	0	0	
14	0	0	0	0	0	412	0	0	0	0	
15	0	0	0	0	0	415	0	0	0	0	
0	0	0	0	0	0	418	0	0	0	0	
1	0	0	0	0	0	420	0	0	0	0	
2	0	0	0	0	0	423	0	0	0	0	
3	0	0	0	0	1	427	0	0	0	0	
4	0	0	0	0	0	431	0	0	0	0	
5	0	0	0	0	0	433	0	0	0	0	
6	0	0	0	0	0	436	0	0	0	0	
7	0	0	0	0	0	438	0	0	0	0	
8	0	0	0	0	0	440	0	0	0	0	
9	0	0	0	0	0	443	0	0	0	0	
10	0	0	0	0	0	445	0	0	0	0	
11	0	0	0	0	1	447	0	0	0	0	
12	0	0	0	0	0	448	0	0	0	0	
13	0	0	0	0	0	449	0	0	0	0	
14	0	0	0	0	0	452	0	0	0	0	
15	0	0	0	0	0	452	0	0	0	0	
0	0	0	0	0	0	454	0	0	0	0	
1	0	0	0	0	0	455	0	0	0	0	
2	0	0	0	0	0	457	0	0	0	0	
3	0	0	0	0	1	458	0	0	0	0	
4	0	0	0	0	0	459	0	0	0	0	
5	0	0	0	0	0	461	0	0	0	0	
6	0	0	0	0	0	462	0	0	0	0	
7	0	0	0	0	0	463	0	0	0	0	
8	0	0	0	0	0	465	0	0	0	0	
9	0	0	0	0	0	465	0	0	0	0	
10	0	0	0	0	0	467	0	0	0	0	
11	0	0	0	0	1	468	0	0	0	0	
12	0	0	0	0	0	469	0	0	0	0	
13	0	0	0	0	0	471	0	0	0	0	
14	0	0	0	0	0	471	0	0	0	0	
15	0	0	0	0	0	472	0	0	0	0	
0	0	0	0	0	0	472	0	0	0	0	
1	0	0	0	0	0	473	0	0	0	0	
2	0	0	0	0	0	475	0	0	0	0	
3	0	0	0	0	1	475	0	0	0	0	
4	0	0	0	0	0	476	0	0	0	0	
5	0	0	0	0	0	476	0	0	0	0	
6	0	0	0	0	0	476	0	0	0	0	
7	0	0	0	0	0	478	0	0	0	0	
8	0	0	0	0	0	478	0	0	0	0	
9	0	0	0	0	0	478	0	0	0	0	
10	0	0	0	0	0	479	0	0	0	0	
11	0	0	0	0	1	479	0	0	0	0	
12	0	0	0	0	0	479	0	0	0	0	
13	0	0	0	0	0	480	0	0	0	0	
14	0	0	0	0	0	480	0	0	0	0	
15	0	0	0	0	0	479	0	0	0	0	
0	0	0	0	0	0	479	0	0	0	0	
1	0	0	0	0	0	478	0	0	0	0	
2	0	0	0	0	0	478	0	0	0	0	
3	0	0	0	0	1	477	0	0	0	0	
4	0	0	0	0	0	476	0	0	0	0	
5	0	0	0	0	0	476	0	0	0	0	
6	0	0	0	0	0	476	0	0	0	0	
7	0	0	0	0	0	476	0	0	0	0	
8	0	0	0	0	0	475	0	0	0	0	
9	0	0	0	0	0	474	0	0	0	0	
10	0	0	0	0	0	473	0	0	0	0	
11	0	0	0	0	1	473	0	0	0	0	
12	0	0	0	0	0	473	0	0	0	0	
13	0	0	0	0	0	473	0	0	0	0	
14	0	0	0	0	0	473	0	0	0	0	
15	0	0	0	0	0	473	0	0	0	0	
0	0	0	0	0	0	474	0	0	0	0	
1	0	0	0	0	0	475	0	0	0	0	
2	0	0	0	0	0	476	0	0	0	0	
3	0	0	0	0	1	477	0	0	0	0	
4	0	0	0	0	0	478	0	0	0	0	
5	0	0	0	0	0	478	0	0	0	0	
6	0	0	0	0	0	479	0	0	0	0	
7	0	0	0	0	0	480	0	0	0	0	
8	0	0	0	0	0	481	0	0	0	0	
9	0	0	0	0	0	481	0	0	0	0	
10	0	0	0	0	0	483	0	0	0	0	
11	0	0	0	0	1	484	0	0	0	0	
12	0	0	0	0	0	486	0	0	0	0	
13	0	0	0	0	0	487	0	0	0	0	
14	0	0	0	0	0	488	0	0	0	0	
15	0	0	0	0	0	491	0	0	0	0	
0	0	0	0	0	0	492	0	0	0	0	
1	0	0	0	0	0	493	0	0	0	0	
2	0	0	0	0	0	495	0	0	0	0	
3	0	0	0	0	1	496	0	0	0	0	
4	0	0	0	0	0	499	0	0	0	0	
5	0	0	0	0	0	501	0	0	0	0	
6	0	0	0	0	0	503	0	0	0	0	
7	0	0	0	0	0	505	0	0	0	0	
8	0	0	0	0	0	507	0	0	0	0	
9	0	0	0	0	0	510	0	0	0	0	
10	0	0	0	0	0	512	0	0	0	0	
11	0	0	0	0	1	514	0	0	0	0	
12	0	0	0	0	0	516	0	0	0	0	
13	0	0	0	0	0	518	0	0	0	0	
14	0	0	0	0	0	520	0	0	0	0	
15	0	0	0	0	0	522	0	0	0	0	
0	0	0	0	0	0	524	0	0	0	0	
1	0	0	0	0	0	525	0	0	0	0	
2	0	0	0	0	0	527	0	0	0	0	
3	0	0	0	0	0	528	0	0	0	0	
4	0	0	0	0	0	529	0	0	0	0	
5	0	0	0	0	0	531	0	0	0	0	
6	0	0	0	0	0	532	0	0	0	0	
7	0	0	0	0	0	534	0	0	0	0	
8	0	0	0	0	0	536	0	0	0	0	
9	0	0	0	0	0	536	0	0	0	0	
10	0	0	0	0	0	537	0	0	0	0	
11	0	0	0	0	0	538	0	0	0	0	
12	0	0	0	0	0	538	0	0	0	0	
13	0	0	0	0	0	538	0	0	0	0	
14	0	0	0	0	0	539	0	0	0	0	
15	0	0	0	0	0	539	0	0	0	0	
0	0	0	0	0	0	540	0	0	0	0	
1	0	0	0	0	0	540	0	0	0	0	
2	0	0	0	0	0	540	0	0	0	0	
3	0	0	0	0	0	540	0	0	0	0	
4	0	0	0	0	0	540	0	0	0	0	
5	0	0	0	0	0	540	0	0	0	0	
6	0	0	0	0	0	540	0	0	0	0	
7	0	0	0	0	0	539	0	0	0	0	
8	0	0	0	0	0	538	0	0	0	0	
9	0	0	0	0	0	537	0	0	0	0	
10	0	0	0	0	0	537	0	0	0	0	
11	0	0	0	0	1	537	0	0	0	0	
12	0	0	0	0	0	537	0	0	0	0	
13	0	0	0	0	0	537	0	0	0	0	
14	0	0	0	0	0	537	0	0	0	0	
15	0	0	0	0	0	537	0	0	0	0	
0	0	0	0	0	0	537	0	0	0	0	
1	0	0	0	0	0	537	0	0	0	0	
2	0	0	0	0	0	537	0	0	0	0	
3	0	0	0	0	1	537	0	0	0	0	
4	0	0	0	0	0	537	0	0	0	0	
5	0	0	0	0	0	537	0	0	0	0	
6	0	0	0	0	0	537	0	0	0	0	
7	0	0	0	0	0	538	0	0	0	0	
8	0	0	0	0	0	538	0	0	0	0	
9	0	0	0	0	0	539	0	0	0	0	
10	0	0	0	0	0	539	0	0	0	0	
11	0	0	0	0	1	538	0	0	0	0	
12	0	0	0	0	0	537	0	0	0	0	
13	0	0	0	0	0	537	0	0	0	0	
14	0	0	0	0	0	537	0	0	0	0	
15	0	0	0	0	0	536	0	0	0	0	
0	0	0	0	0	0	536	0	0	0	0	
1	0	0	0	0	0	536	0	0	0	0	
2	0	0	0	0	0	536	0	0	0	0	
3	0	0	0	0	1	537	0	0	0	0	
4	0	0	0	0	0	537	0	0	0	0	
5	0	0	0	0	0	537	0	0	0	0	
6	0	0	0	0	0	537	0	0	0	0	
7	0	0	0	0	0	536	0	0	0	0	
8	0	0	0	0	0	536	0	0	0	0	
9	0	0	0	0	0	536	0	0	0	0	
10	0	0	0	0	0	536	0	0	0	0	
11	0	0	0	0	1	535	0	0	0	0	
12	0	0	0	0	0	534	0	0	0	0	
13	0	0	0	0	0	535	0	0	0	0	
14	0	0	0	0	0	534	0	0	0	0	
15	0	0	0	0	0	533	0	0	0	0	
0	0	0	0	0	0	532	0	0	0	0	
1	0	0	0	0	0	532	0	0	0	0	
2	0	0	0	0	0	532	0	0	0	0	
3	0	0	0	0	1	532	0	0	0	0	
4	0	0	0	0	0	531	0	0	0	0	
5	0	0	0	0	0	531	0	0	0	0	
6	0	0	0	0	0	530	0	0	0	0	
7	0	0	0	0	0	529	0	0	0	0	
8	0	0	0	0	0	528	0	0	0	0	
9	0	0	0	0	0	528	0	0	0	0	
10	0	0	0	0	0	528	0	0	0	0	
11	0	0	0	0	1	527	0	0	0	0	
12	0	0	0	0	0	528	0	0	0	0	
13	0	0	0	0	0	529	0	0	0	0	
14	0	0	0	0	0	529	0	0	0	0	
15	0	0	0	0	0	528	0	0	0	0	
0	0	0	0	0	0	528	0	0	0	0	
1	0	0	0	0	0	527	0	0	0	0	
2	0	0	0	0	0	527	0	0	0	0	
3	0	0	0	0	1	526	0	0	0	0	
4	0	0	0	0	0	526	0	0	0	0	
5	0	0	0	0	0	526	0	0	0	0	
6	0	0	0	0	0	527	0	0	0	0	
7	0	0	0	0	0	526	0	0	0	0	
8	0	0	0	0	0	527	0	0	0	0	
9	0	0	0	0	0	527	0	0	0	0	
10	0	0	0	0	0	527	0	0	0	0	
11	0	0	0	0	1	527	0	0	0	0	
12	0	0	0	0	0	527	0	0	0	0	
13	0	0	0	0	0	527	0	0	0	0	
14	0	0	0	0	0	527	0	0	0	0	
15	0	0	0	0	0	527	0	0	0	0	
0	0	0	0	0	0	528	0	0	0	0	
1	0	0	0	0	0	528	0	0	0	0	
2	0	0	0	0	0	529	0	0	0	0	
3	0	0	0	0	1	528	0	0	0	0	
4	0	0	0	0	0	528	0	0	0	0	
5	0	0	0	0	0	529	0	0	0	0	
6	0	0	0	0	0	528	0	0	0	0	
7	0	0	0	0	0	528	0	0	0	0	
8	0	0	0	0	0	529	0	0	0	0	
9	0	0	0	0	0	528	0	0	0	0	
10	0	0	0	0	0	527	0	0	0	0	
11	0	0	0	0	1	528	0	0	0	0	
12	0	0	0	0	0	527	0	0	0	0	
13	0	0	0	0	0	527	0	0	0	0	
14	0	0	0	0	0	527	0	0	0	0	
15	0	0	0	0	0	527	0	0	0	0	
0	0	0	0	0	0	527	0	0	0	0	
1	0	0	0	0	0	527	0	0	0	0	
2	0	0	0	0	0	527	0	0	0	0	
3	0	0	0	0	1	526	0	0	0	0	
4	0	0	0	0	0	526	0	0	0	0	
5	0	0	0	0	0	526	0	0	0	0	
6	0	0	0	0	0	525	0	0	0	0	
7	0	0	0	0	0	525	0	0	0	0	
8	0	0	0	0	0	524	0	0	0	0	
9	0	0	0	0	0	524	0	0	0	0	
10	0	0	0	0	0	524	0	0	0	0	
11	0	0	0	0	1	524	0	0	0	0	
12	0	0	0	0	0	523	0	0	0	0	
13	0	0	0	0	0	521	0	0	0	0	
14	0	0	0	0	0	520	0	0	0	0	
15	0	0	0	0	0	519	0	0	0	0	
0	0	0	0	0	0	519	0	0	0	0	
1	0	0	0	0	0	518	0	0	0	0	
2	0	0	0	0	0	516	0	0	0	0	
3	0	0	0	0	1	516	0	0	0	0	
4	0	0	0	0	0	516	0	0	0	0	
5	0	0	0	0	0	516	0	0	0	0	
6	0	0	0	0	0	515	0	0	0	0	
7	0	0	0	0	0	515	0	0	0	0	
8	0	0	0	0	0	515	0	0	0	0	
9	0	0	0	0	0	514	0	0	0	0	
10	0	0	0	0	0	513	0	0	0	0	
11	0	0	0	0	1	511	0	0	0	0	
12	0	0	0	0	0	510	0	0	0	0	
13	0	0	0	0	0	509	0	0	0	0	
14	0	0	0	0	0	508	0	0	0	0	
15	0	0	0	0	0	506	0	0	0	0	
0	0	0	0	0	0	504	0	0	0	0	
1	0	0	0	0	0	503	0	0	0	0	
2	0	0	0	0	0	502	0	0	0	0	
3	0	0	0	0	1	500	0	0	0	0	
4	0	0	0	0	0	499	0	0	0	0	
5	0	0	0	0	0	497	0	0	0	0	
6	0	0	0	0	0	495	0	0	0	0	
7	0	0	0	0	0	494	0	0	0	0	
8	0	0	0	0	0	494	0	0	0	0	
9	0	0	0	0	0	492	0	0	0	0	
10	0	0	0	0	0	491	0	0	0	0	
11	0	0	0	0	1	491	0	0	0	0	
12	0	0	0	0	0	489	0	0	0	0	
13	0	0	0	0	0	488	0	0	0	0	
14	0	0	0	0	0	487	0	0	0	0	
15	0	0	0	0	0	487	0	0	0	0	
0	0	0	0	0	0	487	0	0	0	0	
1	0	0	0	0	0	487	0	0	0	0	
2	0	0	0	0	0	487	0	0	0	0	
3	0	0	0	0	1	486	0	0	0	0	
4	0	0	0	0	0	485	0	0	0	0	
5	0	0	0	0	0	484	0	0	0	0	
6	0	0	0	0	0	484	0	0	0	0	
7	0	0	0	0	0	483	0	0	0	0	
8	0	0	0	0	0	483	0	0	0	0	
9	0	0	0	0	0	483	0	0	0	0	
10	0	0	0	0	0	482	0	0	0	0	
11	0	0	0	0	1	482	0	0	0	0	
12	0	0	0	0	0	481	0	0	0	0	
13	0	0	0	0	0	481	0	0	0	0	
14	0	0	0	0	0	482	0	0	0	0	
15	0	0	0	0	0	483	0	0	0	0	
0	0	0	0	0	0	484	0	0	0	0	
1	0	0	0	0	0	484	0	0	0	0	
2	0	0	0	0	0	484	0	0	0	0	
3	0	0	0	0	1	485	0	0	0	0	
4	0	0	0	0	0	485	0	0	0	0	
5	0	0	0	0	0	485	0	0	0	0	
6	0	0	0	0	0	485	0	0	0	0	
7	0	0	0	0	0	487	0	0	0	0	
8	0	0	0	0	0	487	0	0	0	0	
9	0	0	0	0	0	488	0	0	0	0	
10	0	0	0	0	0	489	0	0	0	0	
11	0	0	0	0	1	489	0	0	0	0	
12	0	0	0	0	0	490	0	0	0	0	
13	0	0	0	0	0	490	0	0	0	0	
14	0	0	0	0	0	490	0	0	0	0	
15	0	0	0	0	0	491	0	0	0	0	
0	0	0	0	0	0	490	0	0	0	0	
1	0	0	0	0	0	491	0	0	0	0	
2	0	0	0	0	0	490	0	0	0	0	
3	0	0	0	0	1	490	0	0	0	0	
4	0	0	0	0	0	490	0	0	0	0	
5	0	0	0	0	0	490	0	0	0	0	
6	0	0	0	0	0	490	0	0	0	0	
7	0	0	0	0	0	489	0	0	0	0	
8	0	0	0	0	0	489	0	0	0	0	
9	0	0	0	0	0	489	0	0	0	0	
10	0	0	0	0	0	490	0	0	0	0	
11	0	0	0	0	1	491	0	0	0	0	
12	0	0	0	0	0	491	0	0	0	0	
13	0	0	0	0	0	492	0	0	0	0	
14	0	0	0	0	0	492	0	0	0	0	
15	0	0	0	0	0	492	0	0	0	0	
0	0	0	0	0	0	492	0	0	0	0	
1	0	0	0	0	0	492	0	0	0	0	
2	0	0	0	0	0	493	0	0	0	0	
3	0	0	0	0	1	493	0	0	0	0	
4	0	0	0	0	0	493	0	0	0	0	
5	0	0	0	0	0	494	0	0	0	0	
6	0	0	0	0	0	494	0	0	0	0	
7	0	0	0	0	0	495	0	0	0	0	
8	0	0	0	0	0	495	0	0	0	0	
9	0	0	0	0	0	494	0	0	0	0	
10	0	0	0	0	0	494	0	0	0	0	
11	0	0	0	0	1	493	0	0	0	0	
12	0	0	0	0	0	492	0	0	0	0	
13	0	0	0	0	0	492	0	0	0	0	
14	0	0	0	0	0	492	0	0	0	0	
15	0	0	0	0	0	493	0	0	0	0	
0	0	0	0	0	0	494	0	0	0	0	
1	0	0	0	0	0	494	0	0	0	0	
2	0	0	0	0	0	495	0	0	0	0	
3	0	0	0	0	0	494	0	0	0	0	
4	0	0	0	0	0	495	0	0	0	0	
5	0	0	0	0	0	495	0	0	0	0	
6	0	0	0	0	0	495	0	0	0	0	
7	0	0	0	0	0	496	0	0	0	0	
8	0	0	0	0	0	497	0	0	0	0	
9	0	0	0	0	0	497	0	0	0	0	
10	0	0	0	0	0	497	0	0	0	0	
11	0	0	0	0	0	497	0	0	0	0	
12	0	0	0	0	0	497	0	0	0	0	
13	0	0	0	0	0	498	0	0	0	0	
14	0	0	0	0	0	499	0	0	0	0	
15	0	0	0	0	0	499	0	0	0	0	
0	0	0	0	0	0	500	0	0	0	0	
1	0	0	0	0	0	500	0	0	0	0	
2	0	0	0	0	0	502	0	0	0	0	
3	0	0	0	0	1	502	0	0	0	0	
4	0	0	0	0	0	502	0	0	0	0	
5	0	0	0	0	0	503	0	0	0	0	
6	0	0	0	0	0	503	0	0	0	0	
7	0	0	0	0	0	504	0	0	0	0	
8	0	0	0	0	0	504	0	0	0	0	
9	0	0	0	0	0	504	0	0	0	0	
10	0	0	0	0	0	505	0	0	0	0	
11	0	0	0	0	1	505	0	0	0	0	
12	0	0	0	0	0	505	0	0	0	0	
13	0	0	0	0	0	506	0	0	0	0	
14	0	0	0	0	0	507	0	0	0	0	
15	0	0	0	0	0	507	0	0	0	0	
0	0	0	0	0	0	508	0	0	0	0	
1	0	0	0	0	0	508	0	0	0	0	
2	0	0	0	0	0	509	0	0	0	0	
3	0	0	0	0	1	510	0	0	0	0	
4	0	0	0	0	0	511	0	0	0	0	
5	0	0	0	0	0	512	0	0	0	0	
6	0	0	0	0	0	512	0	0	0	0	
7	0	0	0	0	0	512	0	0	0	0	
8	0	0	0	0	0	512	0	0	0	0	
9	0	0	0	0	0	512	0	0	0	0	
10	0	0	0	0	0	512	0	0	0	0	
11	0	0	0	0	1	512	0	0	0	0	
12	0	0	0	0	0	512	0	0	0	0	
13	0	0	0	0	0	513	0	0	0	0	
14	0	0	0	0	0	513	0	0	0	0	
15	0	0	0	0	0	514	0	0	0	0	
0	0	0	0	0	0	513	0	0	0	0	
1	0	0	0	0	0	513	0	0	0	0	
2	0	0	0	0	0	514	0	0	0	0	
3	0	0	0	0	1	514	0	0	0	0	
4	0	0	0	0	0	514	0	0	0	0	
5	0	0	0	0	0	513	0	0	0	0	
6	0	0	0	0	0	513	0	0	0	0	
7	0	0	0	0	0	513	0	0	0	0	
8	0	0	0	0	0	513	0	0	0	0	
9	0	0	0	0	0	514	0	0	0	0	
10	0	0	0	0	0	515	0	0	0	0	
11	0	0	0	0	1	515	0	0	0	0	
12	0	0	0	0	0	514	0	0	0	0	
13	0	0	0	0	0	514	0	0	0	0	
14	0	0	0	0	0	513	0	0	0	0	
15	0	0	0	0	0	512	0	0	0	0	
0	0	0	0	0	0	512	0	0	0	0	
1	0	0	0	0	0	512	0	0	0	0	
2	0	0	0	0	0	512	0	0	0	0	
3	0	0	0	0	1	513	0	0	0	0	
4	0	0	0	0	0	513	0	0	0	0	
5	0	0	0	0	0	513	0	0	0	0	
6	0	0	0	0	0	512	0	0	0	0	
7	0	0	0	0	0	512	0	0	0	0	
8	0	0	0	0	0	512	0	0	0	0	
9	0	0	0	0	0	512	0	0	0	0	
10	0	0	0	0	0	513	0	0	0	0	
11	0	0	0	0	1	513	0	0	0	0	
12	0	0	0	0	0	514	0	0	0	0	
13	0	0	0	0	0	513	0	0	0	0	
14	0	0	0	0	0	512	0	0	0	0	
15	0	0	0	0	0	511	0	0	0	0	
0	0	0	0	0	0	511	0	0	0	0	
1	0	0	0	0	0	509	0	0	0	0	
2	0	0	0	0	0	508	0	0	0	0	
3	0	0	0	0	1	508	0	0	0	0	
4	0	0	0	0	0	508	0	0	0	0	
5	0	0	0	0	0	508	0	0	0	0	
6	0	0	0	0	0	508	0	0	0	0	
7	0	0	0	0	0	508	0	0	0	0	
8	0	0	0	0	0	508	0	0	0	0	
9	0	0	0	0	0	507	0	0	0	0	
10	0	0	0	0	0	507	0	0	0	0	
11	0	0	0	0	1	506	0	0	0	0	
12	0	0	0	0	0	506	0	0	0	0	
13	0	0	0	0	0	506	0	0	0	0	
14	0	0	0	0	0	505	0	0	0	0	
15	0	0	0	0	0	505	0	0	0	0	
0	0	0	0	0	0	505	0	0	0	0	
1	0	0	0	0	0	505	0	0	0	0	
2	0	0	0	0	0	504	0	0	0	0	
3	0	0	0	0	1	504	0	0	0	0	
4	0	0	0	0	0	504	0	0	0	0	
5	0	0	0	0	0	504	0	0	0	0	
6	0	0	0	0	0	504	0	0	0	0	
7	0	0	0	0	0	504	0	0	0	0	
8	0	0	0	0	0	504	0	0	0	0	
9	0	0	0	0	0	504	0	0	0	0	
10	0	0	0	0	0	504	0	0	0	0	
11	0	0	0	0	1	504	0	0	0	0	
12	0	0	0	0	0	503	0	0	0	0	
13	0	0	0	0	0	504	0	0	0	0	
14	0	0	0	0	0	504	0	0	0	0	
15	0	0	0	0	0	504	0	0	0	0	
0	0	0	0	0	0	504	0	0	0	0	
1	0	0	0	0	0	504	0	0	0	0	
2	0	0	0	0	0	504	0	0	0	0	
3	0	0	0	0	1	505	0	0	0	0	
4	0	0	0	0	0	505	0	0	0	0	
5	0	0	0	0	0	505	0	0	0	0	
6	0	0	0	0	0	505	0	0	0	0	
7	0	0	0	0	0	507	0	0	0	0	
8	0	0	0	0	0	508	0	0	0	0	
9	0	0	0	0	0	508	0	0	0	0	
10	0	0	0	0	0	507	0	0	0	0	
11	0	0	0	0	1	507	0	0	0	0	
12	0	0	0	0	0	507	0	0	0	0	
13	0	0	0	0	0	508	0	0	0	0	
14	0	0	0	0	0	508	0	0	0	0	
15	0	0	0	0	0	508	0	0	0	0	
0	0	0	0	0	0	508	0	0	0	0	
1	0	0	0	0	0	508	0	0	0	0	
2	0	0	0	0	0	509	0	0	0	0	
3	0	0	0	0	1	510	0	0	0	0	
4	0	0	0	0	0	510	0	0	0	0	
5	0	0	0	0	0	510	0	0	0	0	
6	0	0	0	0	0	511	0	0	0	0	
7	0	0	0	0	0	511	0	0	0	0	
8	0	0	0	0	0	512	0	0	0	0	
9	0	0	0	0	0	513	0	0	0	0	
10	0	0	0	0	0	513	0	0	0	0	
11	0	0	0	0	1	514	0	0	0	0	
12	0	0	0	0	0	514	0	0	0	0	
13	0	0	0	0	0	513	0	0	0	0	
14	0	0	0	0	0	513	0	0	0	0	
15	0	0	0	0	0	513	0	0	0	0	
0	0	0	0	0	0	514	0	0	0	0	
1	0	0	0	0	0	515	0	0	0	0	
2	0	0	0	0	0	516	0	0	0	0	
3	0	0	0	0	1	517	0	0	0	0	
4	0	0	0	0	0	517	0	0	0	0	
5	0	0	0	0	0	518	0	0	0	0	
6	0	0	0	0	0	519	0	0	0	0	
7	0	0	0	0	0	520	0	0	0	0	
8	0	0	0	0	0	519	0	0	0	0	
9	0	0	0	0	0	519	0	0	0	0	
10	0	0	0	0	0	520	0	0	0	0	
11	0	0	0	0	1	520	0	0	0	0	
12	0	0	0	0	0	519	0	0	0	0	
13	0	0	0	0	0	519	0	0	0	0	
14	0	0	0	0	0	519	0	0	0	0	
15	0	0	0	0	0	519	0	0	0	0	
0	0	0	0	0	0	519	0	0	0	0	
1	0	0	0	0	0	519	0	0	0	0	
2	0	0	0	0	0	519	0	0	0	0	
3	0	0	0	0	1	519	0	0	0	0	
4	0	0	0	0	0	519	0	0	0	0	
5	0	0	0	0	0	519	0	0	0	0	
6	0	0	0	0	0	520	0	0	0	0	
7	0	0	0	0	0	520	0	0	0	0	
8	0	0	0	0	0	521	0	0	0	0	
9	0	0	0	0	0	521	0	0	0	0	
10	0	0	0	0	0	521	0	0	0	0	
11	0	0	0	0	1	521	0	0	0	0	
12	0	0	0	0	0	521	0	0	0	0	
13	0	0	0	0	0	521	0	0	0	0	
14	0	0	0	0	0	521	0	0	0	0	
15	0	0	0	0	0	521	0	0	0	0	
0	0	0	0	0	0	521	0	0	0	0	
1	0	0	0	0	0	521	0	0	0	0	
2	0	0	0	0	0	521	0	0	0	0	
3	0	0	0	0	1	521	0	0	0	0	
4	0	0	0	0	0	520	0	0	0	0	
5	0	0	0	0	0	519	0	0	0	0	
6	0	0	0	0	0	520	0	0	0	0	
7	0	0	0	0	0	519	0	0	0	0	
8	0	0	0	0	0	520	0	0	0	0	
9	0	0	0	0	0	519	0	0	0	0	
10	0	0	0	0	0	519	0	0	0	0	
11	0	0	0	0	1	519	0	0	0	0	
12	0	0	0	0	0	519	0	0	0	0	
13	0	0	0	0	0	519	0	0	0	0	
14	0	0	0	0	0	518	0	0	0	0	
15	0	0	0	0	0	518	0	0	0	0	
0	0	0	0	0	0	517	0	0	0	0	
1	0	0	0	0	0	516	0	0	0	0	
2	0	0	0	0	0	515	0	0	0	0	
3	0	0	0	0	1	515	0	0	0	0	
4	0	0	0	0	0	515	0	0	0	0	
5	0	0	0	0	0	513	0	0	0	0	
6	0	0	0	0	0	512	0	0	0	0	
7	0	0	0	0	0	512	0	0	0	0	
8	0	0	0	0	0	512	0	0	0	0	
9	0	0	0	0	0	512	0	0	0	0	
10	0	0	0	0	0	512	0	0	0	0	
11	0	0	0	0	1	512	0	0	0	0	
12	0	0	0	0	0	512	0	0	0	0	
13	0	0	0	0	0	512	0	0	0	0	
14	0	0	0	0	0	512	0	0	0	0	
15	0	0	0	0	0	512	0	0	0	0	
0	0	0	0	0	0	512	0	0	0	0	
1	0	0	0	0	0	512	0	0	0	0	
2	0	0	0	0	0	512	0	0	0	0	
3	0	0	0	0	1	512	0	0	0	0	
4	0	0	0	0	0	511	0	0	0	0	
5	0	0	0	0	0	512	0	0	0	0	
6	0	0	0	0	0	511	0	0	0	0	
7	0	0	0	0	0	512	0	0	0	0	
8	0	0	0	0	0	512	0	0	0	0	
9	0	0	0	0	0	512	0	0	0	0	
10	0	0	0	0	0	512	0	0	0	0	
11	0	0	0	0	0	512	0	0	0	0	
12	0	0	0	0	0	513	0	0	0	0	
13	0	0	0	0	0	513	0	0	0	0	
14	0	0	0	0	0	514	0	0	0	0	
15	0	0	0	0	0	514	0	0	0	0	
0	0	0	0	0	0	515	0	0	0	0	
1	0	0	0	0	0	515	0	0	0	0	
2	0	0	0	0	0	515	0	0	0	0	
3	0	0	0	0	0	516	0	0	0	0	
4	0	0	0	0	0	515	0	0	0	0	
5	0	0	0	0	0	516	0	0	0	0	
6	0	0	0	0	0	515	0	0	0	0	
7	0	0	0	0	0	515	0	0	0	0	
8	0	0	0	0	0	515	0	0	0	0	
9	0	0	0	0	0	515	0	0	0	0	
10	0	0	0	0	0	515	0	0	0	0	
11	0	0	0	0	0	515	0	0	0	0	
12	0	0	0	0	0	516	0	0	0	0	
13	0	0	0	0	0	516	0	0	0	0	
14	0	0	0	0	0	516	0	0	0	0	
15	0	0	0	0	0	516	0	0	0	0	
0	0	0	0	0	0	517	0	0	0	0	
1	0	0	0	0	0	517	0	0	0	0	
2	0	0	0	0	0	517	0	0	0	0	
3	0	0	0	0	1	517	0	0	0	0	
4	0	0	0	0	0	518	0	0	0	0	
5	0	0	0	0	0	518	0	0	0	0	
6	0	0	0	0	0	518	0	0	0	0	
7	0	0	0	0	0	519	0	0	0	0	
8	0	0	0	0	0	519	0	0	0	0	
9	0	0	0	0	0	519	0	0	0	0	
10	0	0	0	0	0	518	0	0	0	0	
11	0	0	0	0	1	519	0	0	0	0	
12	0	0	0	0	0	519	0	0	0	0	
13	0	0	0	0	0	519	0	0	0	0	
14	0	0	0	0	0	519	0	0	0	0	
15	0	0	0	0	0	519	0	0	0	0	
0	0	0	0	0	0	519	0	0	0	0	
1	0	0	0	0	0	520	0	0	0	0	
2	0	0	0	0	0	520	0	0	0	0	
3	0	0	0	0	1	520	0	0	0	0	
4	0	0	0	0	0	520	0	0	0	0	
5	0	0	0	0	0	520	0	0	0	0	
6	0	0	0	0	0	520	0	0	0	0	
7	0	0	0	0	0	520	0	0	0	0	
8	0	0	0	0	0	521	0	0	0	0	
9	0	0	0	0	0	521	0	0	0	0	
10	0	0	0	0	0	521	0	0	0	0	
11	0	0	0	0	1	521	0	0	0	0	
12	0	0	0	0	0	521	0	0	0	0	
13	0	0	0	0	0	522	0	0	0	0	
14	0	0	0	0	0	522	0	0	0	0	
15	0	0	0	0	0	522	0	0	0	0	
0	0	0	0	0	0	522	0	0	0	0	
1	0	0	0	0	0	521	0	0	0	0	
2	0	0	0	0	0	520	0	0	0	0	
3	0	0	0	0	1	519	0	0	0	0	
4	0	0	0	0	0	519	0	0	0	0	
5	0	0	0	0	0	520	0	0	0	0	
6	0	0	0	0	0	520	0	0	0	0	
7	0	0	0	0	0	521	0	0	0	0	
8	0	0	0	0	0	520	0	0	0	0	
9	0	0	0	0	0	521	0	0	0	0	
10	0	0	0	0	0	520	0	0	0	0	
11	0	0	0	0	1	520	0	0	0	0	
12	0	0	0	0	0	520	0	0	0	0	
13	0	0	0	0	0	519	0	0	0	0	
14	0	0	0	0	0	519	0	0	0	0	
15	0	0	0	0	0	519	0	0	0	0	
0	0	0	0	0	0	519	0	0	0	0	
1	0	0	0	0	0	518	0	0	0	0	
2	0	0	0	0	0	516	0	0	0	0	
3	0	0	0	0	1	516	0	0	0	0	
4	0	0	0	0	0	515	0	0	0	0	
5	0	0	0	0	0	515	0	0	0	0	
6	0	0	0	0	0	515	0	0	0	0	
7	0	0	0	0	0	515	0	0	0	0	
8	0	0	0	0	0	516	0	0	0	0	
9	0	0	0	0	0	516	0	0	0	0	
10	0	0	0	0	0	516	0	0	0	0	
11	0	0	0	0	1	517	0	0	0	0	
12	0	0	0	0	0	517	0	0	0	0	
13	0	0	0	0	0	517	0	0	0	0	
14	0	0	0	0	0	517	0	0	0	0	
15	0	0	0	0	0	516	0	0	0	0	
0	0	0	0	0	0	515	0	0	0	0	
1	0	0	0	0	0	515	0	0	0	0	
2	0	0	0	0	0	515	0	0	0	0	
3	0	0	0	0	1	515	0	0	0	0	
4	0	0	0	0	0	515	0	0	0	0	
5	0	0	0	0	0	515	0	0	0	0	
6	0	0	0	0	0	514	0	0	0	0	
7	0	0	0	0	0	514	0	0	0	0	
8	0	0	0	0	0	513	0	0	0	0	
9	0	0	0	0	0	513	0	0	0	0	
10	0	0	0	0	0	513	0	0	0	0	
11	0	0	0	0	1	513	0	0	0	0	
12	0	0	0	0	0	513	0	0	0	0	
13	0	0	0	0	0	513	0	0	0	0	
14	0	0	0	0	0	513	0	0	0	0	
15	0	0	0	0	0	513	0	0	0	0	
0	0	0	0	0	0	513	0	0	0	0	
1	0	0	0	0	0	513	0	0	0	0	
2	0	0	0	0	0	513	0	0	0	0	
3	0	0	0	0	1	512	0	0	0	0	
4	0	0	0	0	0	513	0	0	0	0	
5	0	0	0	0	0	512	0	0	0	0	
6	0	0	0	0	0	512	0	0	0	0	
7	0	0	0	0	0	512	0	0	0	0	
8	0	0	0	0	0	512	0	0	0	0	
9	0	0	0	0	0	512	0	0	0	0	
10	0	0	0	0	0	512	0	0	0	0	
11	0	0	0	0	1	512	0	0	0	0	
12	0	0	0	0	0	512	0	0	0	0	
13	0	0	0	0	0	512	0	0	0	0	
14	0	0	0	0	0	512	0	0	0	0	
15	0	0	0	0	0	512	0	0	0	0	
0	0	0	0	0	0	512	0	0	0	0	
1	0	0	0	0	0	513	0	0	0	0	
2	0	0	0	0	0	514	0	0	0	0	
3	0	0	0	0	1	514	0	0	0	0	
4	0	0	0	0	0	514	0	0	0	0	
5	0	0	0	0	0	515	0	0	0	0	
6	0	0	0	0	0	515	0	0	0	0	
7	0	0	0	0	0	515	0	0	0	0	
8	0	0	0	0	0	514	0	0	0	0	
9	0	0	0	0	0	513	0	0	0	0	
10	0	0	0	0	0	512	0	0	0	0	
11	0	0	0	0	1	512	0	0	0	0	
12	0	0	0	0	0	512	0	0	0	0	
13	0	0	0	0	0	511	0	0	0	0	
14	0	0	0	0	0	511	0	0	0	0	
15	0	0	0	0	0	512	0	0	0	0	
0	0	0	0	0	0	511	0	0	0	0	
1	0	0	0	0	0	511	0	0	0	0	
2	0	0	0	0	0	511	0	0	0	0	
3	0	0	0	0	1	512	0	0	0	0	
4	0	0	0	0	0	512	0	0	0	0	
5	0	0	0	0	0	513	0	0	0	0	
6	0	0	0	0	0	513	0	0	0	0	
7	0	0	0	0	0	515	0	0	0	0	
8	0	0	0	0	0	515	0	0	0	0	
9	0	0	0	0	0	516	0	0	0	0	
10	0	0	0	0	0	518	0	0	0	0	
11	0	0	0	0	1	519	0	0	0	0	
12	0	0	0	0	0	519	0	0	0	0	
13	0	0	0	0	0	521	0	0	0	0	
14	0	0	0	0	0	522	0	0	0	0	
15	0	0	0	0	0	523	0	0	0	0	
0	0	0	0	0	0	524	0	0	0	0	
1	0	0	0	0	0	525	0	0	0	0	
2	0	0	0	0	0	526	0	0	0	0	
3	0	0	0	0	1	527	0	0	0	0	
4	0	0	0	0	0	528	0	0	0	0	
5	0	0	0	0	0	529	0	0	0	0	
6	0	0	0	0	0	530	0	0	0	0	
7	0	0	0	0	0	531	0	0	0	0	
8	0	0	0	0	0	532	0	0	0	0	
9	0	0	0	0	0	532	0	0	0	0	
10	0	0	0	0	0	532	0	0	0	0	
11	0	0	0	0	1	532	0	0	0	0	
12	0	0	0	0	0	530	0	0	0	0	
13	0	0	0	0	0	529	0	0	0	0	
14	0	0	0	0	0	528	0	0	0	0	
15	0	0	0	0	0	527	0	0	0	0	
0	0	0	0	0	0	526	0	0	0	0	
1	0	0	0	0	0	525	0	0	0	0	
2	0	0	0	0	0	525	0	0	0	0	
3	0	0	0	0	1	524	0	0	0	0	
4	0	0	0	0	0	525	0	0	0	0	
5	0	0	0	0	0	526	0	0	0	0	
6	0	0	0	0	0	527	0	0	0	0	
7	0	0	0	0	0	527	0	0	0	0	
8	0	0	0	0	0	528	0	0	0	0	
9	0	0	0	0	0	528	0	0	0	0	
10	0	0	0	0	0	530	0	0	0	0	
11	0	0	0	0	1	531	0	0	0	0	
12	0	0	0	0	0	532	0	0	0	0	
13	0	0	0	0	0	534	0	0	0	0	
14	0	0	0	0	0	535	0	0	0	0	
15	0	0	0	0	0	536	0	0	0	0	
0	0	0	0	0	0	537	0	0	0	0	
1	0	0	0	0	0	537	0	0	0	0	
2	0	0	0	0	0	537	0	0	0	0	
3	0	0	0	0	1	536	0	0	0	0	
4	0	0	0	0	0	535	0	0	0	0	
5	0	0	0	0	0	534	0	0	0	0	
6	0	0	0	0	0	532	0	0	0	0	
7	0	0	0	0	0	530	0	0	0	0	
8	0	0	0	0	0	527	0	0	0	0	
9	0	0	0	0	0	525	0	0	0	0	
10	0	0	0	0	0	523	0	0	0	0	
11	0	0	0	0	1	522	0	0	0	0	
12	0	0	0	0	0	521	0	0	0	0	
13	0	0	0	0	0	520	0	0	0	0	
14	0	0	0	0	0	520	0	0	0	0	
15	0	0	0	0	0	519	0	0	0	0	
0	0	0	0	0	0	519	0	0	0	0	
1	0	0	0	0	0	518	0	0	0	0	
2	0	0	0	0	0	517	0	0	0	0	
3	0	0	0	0	1	517	0	0	0	0	
4	0	0	0	0	0	518	0	0	0	0	
5	0	0	0	0	0	518	0	0	0	0	
6	0	0	0	0	0	518	0	0	0	0	
7	0	0	0	0	0	518	0	0	0	0	
8	0	0	0	0	0	519	0	0	0	0	
9	0	0	0	0	0	519	0	0	0	0	
10	0	0	0	0	0	519	0	0	0	0	
11	0	0	0	0	1	519	0	0	0	0	
12	0	0	0	0	0	518	0	0	0	0	
13	0	0	0	0	0	517	0	0	0	0	
14	0	0	0	0	0	515	0	0	0	0	
15	0	0	0	0	0	514	0	0	0	0	
0	0	0	0	0	0	512	0	0	0	0	
1	0	0	0	0	0	511	0	0	0	0	
2	0	0	0	0	0	510	0	0	0	0	
3	0	0	0	0	0	509	0	0	0	0	
4	0	0	0	0	0	508	0	0	0	0	
5	0	0	0	0	0	508	0	0	0	0	
6	0	0	0	0	0	506	0	0	0	0	
7	0	0	0	0	0	504	0	0	0	0	
8	0	0	0	0	0	502	0	0	0	0	
9	0	0	0	0	0	500	0	0	0	0	
10	0	0	0	0	0	498	0	0	0	0	
11	0	0	0	0	0	497	0	0	0	0	
12	0	0	0	0	0	496	0	0	0	0	
13	0	0	0	0	0	495	0	0	0	0	
14	0	0	0	0	0	495	0	0	0	0	
15	0	0	0	0	0	495	0	0	0	0	
0	0	0	0	0	0	495	0	0	0	0	
1	0	0	0	0	0	495	0	0	0	0	
2	0	0	0	0	0	494	0	0	0	0	
3	0	0	0	0	0	493	0	0	0	0	
4	0	0	0	0	0	492	0	0	0	0	
5	0	0	0	0	0	492	0	0	0	0	
6	0	0	0	0	0	492	0	0	0	0	
7	0	0	0	0	0	492	0	0	0	0	
8	0	0	0	0	0	491	0	0	0	0	
9	0	0	0	0	0	491	0	0	0	0	
10	0	0	0	0	0	491	0	0	0	0	
11	0	0	0	0	1	492	0	0	0	0	
12	0	0	0	0	0	492	0	0	0	0	
13	0	0	0	0	0	492	0	0	0	0	
14	0	0	0	0	0	492	0	0	0	0	
15	0	0	0	0	0	492	0	0	0	0	
0	0	0	0	0	0	492	0	0	0	0	
1	0	0	0	0	0	492	0	0	0	0	
2	0	0	0	0	0	492	0	0	0	0	
3	0	0	0	0	1	492	0	0	0	0	
4	0	0	0	0	0	492	0	0	0	0	
5	0	0	0	0	0	493	0	0	0	0	
6	0	0	0	0	0	493	0	0	0	0	
7	0	0	0	0	0	494	0	0	0	0	
8	0	0	0	0	0	494	0	0	0	0	
9	0	0	0	0	0	494	0	0	0	0	
10	0	0	0	0	0	495	0	0	0	0	
11	0	0	0	0	1	495	0	0	0	0	
12	0	0	0	0	0	495	0	0	0	0	
13	0	0	0	0	0	496	0	0	0	0	
14	0	0	0	0	0	497	0	0	0	0	
15	0	0	0	0	0	498	0	0	0	0	
0	0	0	0	0	0	498	0	0	0	0	
1	0	0	0	0	0	499	0	0	0	0	
2	0	0	0	0	0	498	0	0	0	0	
3	0	0	0	0	1	499	0	0	0	0	
4	0	0	0	0	0	499	0	0	0	0	
5	0	0	0	0	0	500	0	0	0	0	
6	0	0	0	0	0	501	0	0	0	0	
7	0	0	0	0	0	501	0	0	0	0	
8	0	0	0	0	0	501	0	0	0	0	
9	0	0	0	0	0	502	0	0	0	0	
10	0	0	0	0	0	502	0	0	0	0	
11	0	0	0	0	1	503	0	0	0	0	
12	0	0	0	0	0	503	0	0	0	0	
13	0	0	0	0	0	502	0	0	0	0	
14	0	0	0	0	0	503	0	0	0	0	
15	0	0	0	0	0	503	0	0	0	0	
0	0	0	0	0	0	503	0	0	0	0	
1	0	0	0	0	0	504	0	0	0	0	
2	0	0	0	0	0	505	0	0	0	0	
3	0	0	0	0	1	506	0	0	0	0	
4	0	0	0	0	0	505	0	0	0	0	
5	0	0	0	0	0	507	0	0	0	0	
6	0	0	0	0	0	507	0	0	0	0	
7	0	0	0	0	0	507	0	0	0	0	
8	0	0	0	0	0	507	0	0	0	0	
9	0	0	0	0	0	506	0	0	0	0	
10	0	0	0	0	0	505	0	0	0	0	
11	0	0	0	0	1	503	0	0	0	0	
12	0	0	0	0	0	502	0	0	0	0	
13	0	0	0	0	0	499	0	0	0	0	
14	0	0	0	0	0	497	0	0	0	0	
15	0	0	0	0	0	495	0	0	0	0	
0	0	0	0	0	0	492	0	0	0	0	
1	0	0	0	0	0	492	0	0	0	0	
2	0	0	0	0	0	491	0	0	0	0	
3	0	0	0	0	1	491	0	0	0	0	
4	0	0	0	0	0	493	0	0	0	0	
5	0	0	0	0	0	496	0	0	0	0	
6	0	0	0	0	0	501	0	0	0	0	
7	0	0	0	0	0	506	0	0	0	0	
8	0	0	0	0	0	513	0	0	0	0	
9	0	0	0	0	0	520	0	0	0	0	
10	0	0	0	0	0	529	0	0	0	0	
11	0	0	0	0	1	538	0	0	0	0	
12	0	0	0	0	0	549	0	0	0	0	
13	0	0	0	0	0	560	0	0	0	0	
14	0	0	0	0	0	571	0	0	0	0	
15	0	0	0	0	0	582	0	0	0	0	
0	0	0	0	0	0	593	0	0	0	0	
1	0	0	0	0	0	607	0	0	0	0	
2	0	0	0	0	0	622	0	0	0	0	
3	0	0	0	0	1	639	0	0	0	0	
4	0	0	0	0	0	658	1	0	0	0	
5	0	0	0	0	0	678	1	0	0	0	
6	0	0	0	0	0	702	1	0	0	0	
7	0	0	0	0	0	727	1	0	0	0	
8	0	0	0	0	0	753	1	0	0	0	
9	0	0	0	0	0	780	1	0	0	0	
10	0	0	0	0	0	807	1	0	0	0	
11	0	0	0	0	1	836	1	0	0	0	
12	0	0	0	0	0	864	2	0	0	0	
13	0	0	0	0	0	889	2	0	0	0	
14	0	0	0	0	0	913	2	0	0	0	
15	0	0	0	0	0	937	2	0	0	0	
0	0	0	0	0	0	958	3	0	0	0	
1	0	0	0	0	0	976	3	0	0	0	
2	0	0	0	0	0	994	3	0	0	0	
3	0	0	0	0	1	1007	3	0	0	0	
4	0	0	0	0	0	1016	3	0	0	0	
5	0	0	0	0	0	1017	3	0	0	0	
6	0	0	0	0	0	1007	3	0	0	0	
7	0	0	0	0	0	988	3	0	0	0	
8	0	0	0	0	0	966	2	0	0	0	
9	0	0	0	0	0	937	2	0	0	0	
10	0	0	0	0	0	901	2	0	0	0	
11	0	0	0	0	1	859	2	0	0	0	
12	0	0	0	0	0	814	1	0	0	0	
13	0	0	0	0	0	768	1	0	0	0	
14	0	0	0	0	0	720	1	0	0	0	
15	0	0	0	0	0	674	1	0	0	0	
0	0	0	0	0	0	631	0	0	0	0	
1	0	0	0	0	0	591	0	0	0	0	
2	0	0	0	0	0	555	0	0	0	0	
3	0	0	0	0	1	523	0	0	0	0	
4	0	0	0	0	0	493	0	0	0	0	
5	0	0	0	0	0	465	0	0	0	0	
6	0	0	0	0	0	442	0	0	0	0	
7	0	0	0	0	0	421	0	0	0	0	
8	0	0	0	0	0	402	0	0	0	0	
9	0	0	0	0	0	384	0	0	0	0	
10	0	0	0	0	0	367	0	0	0	0	
11	0	0	0	0	1	351	0	0	0	0	
12	0	0	0	0	0	335	0	0	0	0	
13	0	0	0	0	0	320	0	0	0	0	
14	0	0	0	0	0	307	0	0	0	0	
15	0	0	0	0	0	296	0	0	0	0	
0	0	0	0	0	0	289	0	0	0	0	
1	0	0	0	0	0	285	0	0	0	0	
2	0	0	0	0	0	284	0	0	0	0	
3	0	0	0	0	1	288	0	0	0	0	
4	0	0	0	0	0	295	0	0	0	0	
5	0	0	0	0	0	305	0	0	0	0	
6	0	0	0	0	0	314	0	0	0	0	
7	0	0	0	0	0	323	0	0	0	0	
8	0	0	0	0	0	333	0	0	0	0	
9	0	0	0	0	0	342	0	0	0	0	
10	0	0	0	0	0	350	0	0	0	0	
11	0	0	0	0	1	357	0	0	0	0	
12	0	0	0	0	0	365	0	0	0	0	
13	0	0	0	0	0	374	0	0	0	0	
14	0	0	0	0	0	382	0	0	0	0	
15	0	0	0	0	0	388	0	0	0	0	
0	0	0	0	0	0	394	0	0	0	0	
1	0	0	0	0	0	399	0	0	0	0	
2	0	0	0	0	0	402	0	0	0	0	
3	0	0	0	0	1	406	0	0	0	0	
4	0	0	0	0	0	408	0	0	0	0	
5	0	0	0	0	0	412	0	0	0	0	
6	0	0	0	0	0	415	0	0	0	0	
7	0	0	0	0	0	418	0	0	0	0	
8	0	0	0	0	0	420	0	0	0	0	
9	0	0	0	0	0	423	0	0	0	0	
10	0	0	0	0	0	425	0	0	0	0	
11	0	0	0	0	1	428	0	0	0	0	
12	0	0	0	0	0	431	0	0	0	0	
13	0	0	0	0	0	433	0	0	0	0	
14	0	0	0	0	0	436	0	0	0	0	
15	0	0	0	0	0	438	0	0	0	0	
0	0	0	0	0	0	439	0	0	0	0	
1	0	0	0	0	0	440	0	0	0	0	
2	0	0	0	0	0	442	0	0	0	0	
3	0	0	0	0	1	444	0	0	0	0	
4	0	0	0	0	0	445	0	0	0	0	
5	0	0	0	0	0	445	0	0	0	0	
6	0	0	0	0	0	446	0	0	0	0	
7	0	0	0	0	0	447	0	0	0	0	
8	0	0	0	0	0	449	0	0	0	0	
9	0	0	0	0	0	450	0	0	0	0	
10	0	0	0	0	0	451	0	0	0	0	
11	0	0	0	0	1	451	0	0	0	0	
12	0	0	0	0	0	453	0	0	0	0	
13	0	0	0	0	0	454	0	0	0	0	
14	0	0	0	0	0	455	0	0	0	0	
15	0	0	0	0	0	456	0	0	0	0	
0	0	0	0	0	0	456	0	0	0	0	
1	0	0	0	0	0	457	0	0	0	0	
2	0	0	0	0	0	458	0	0	0	0	
3	0	0	0	0	1	459	0	0	0	0	
4	0	0	0	0	0	460	0	0	0	0	
5	0	0	0	0	0	461	0	0	0	0	
6	0	0	0	0	0	461	0	0	0	0	
7	0	0	0	0	0	462	0	0	0	0	
8	0	0	0	0	0	462	0	0	0	0	
9	0	0	0	0	0	462	0	0	0	0	
10	0	0	0	0	0	463	0	0	0	0	
11	0	0	0	0	1	463	0	0	0	0	
12	0	0	0	0	0	464	0	0	0	0	
13	0	0	0	0	0	465	0	0	0	0	
14	0	0	0	0	0	466	0	0	0	0	
15	0	0	0	0	0	467	0	0	0	0	
0	0	0	0	0	0	468	0	0	0	0	
1	0	0	0	0	0	468	0	0	0	0	
2	0	0	0	0	0	470	0	0	0	0	
3	0	0	0	0	1	470	0	0	0	0	
4	0	0	0	0	0	470	0	0	0	0	
5	0	0	0	0	0	469	0	0	0	0	
6	0	0	0	0	0	470	0	0	0	0	
7	0	0	0	0	0	470	0	0	0	0	
8	0	0	0	0	0	469	0	0	0	0	
9	0	0	0	0	0	470	0	0	0	0	
10	0	0	0	0	0	469	0	0	0	0	
11	0	0	0	0	1	469	0	0	0	0	
12	0	0	0	0	0	470	0	0	0	0	
13	0	0	0	0	0	471	0	0	0	0	
14	0	0	0	0	0	471	0	0	0	0	
15	0	0	0	0	0	471	0	0	0	0	
0	0	0	0	0	0	472	0	0	0	0	
1	0	0	0	0	0	472	0	0	0	0	
2	0	0	0	0	0	472	0	0	0	0	
3	0	0	0	0	0	472	0	0	0	0	
4	0	0	0	0	0	473	0	0	0	0	
5	0	0	0	0	0	473	0	0	0	0	
6	0	0	0	0	0	474	0	0	0	0	
7	0	0	0	0	0	475	0	0	0	0	
8	0	0	0	0	0	475	0	0	0	0	
9	0	0	0	0	0	475	0	0	0	0	
10	0	0	0	0	0	476	0	0	0	0	
11	0	0	0	0	0	477	0	0	0	0	
12	0	0	0	0	0	478	0	0	0	0	
13	0	0	0	0	0	479	0	0	0	0	
14	0	0	0	0	0	480	0	0	0	0	
15	0	0	0	0	0	481	0	0	0	0	
0	0	0	0	0	0	483	0	0	0	0	
1	0	0	0	0	0	483	0	0	0	0	
2	0	0	0	0	0	484	0	0	0	0	
3	0	0	0	0	1	486	0	0	0	0	
4	0	0	0	0	0	487	0	0	0	0	
5	0	0	0	0	0	487	0	0	0	0	
6	0	0	0	0	0	488	0	0	0	0	
7	0	0	0	0	0	489	0	0	0	0	
8	0	0	0	0	0	490	0	0	0	0	
9	0	0	0	0	0	492	0	0	0	0	
10	0	0	0	0	0	492	0	0	0	0	
11	0	0	0	0	1	494	0	0	0	0	
12	0	0	0	0	0	496	0	0	0	0	
13	0	0	0	0	0	497	0	0	0	0	
14	0	0	0	0	0	499	0	0	0	0	
15	0	0	0	0	0	500	0	0	0	0	
0	0	0	0	0	0	501	0	0	0	0	
1	0	0	0	0	0	502	0	0	0	0	
2	0	0	0	0	0	504	0	0	0	0	
3	0	0	0	0	1	505	0	0	0	0	
4	0	0	0	0	0	507	0	0	0	0	
5	0	0	0	0	0	508	0	0	0	0	
6	0	0	0	0	0	508	0	0	0	0	
7	0	0	0	0	0	509	0	0	0	0	
8	0	0	0	0	0	510	0	0	0	0	
9	0	0	0	0	0	511	0	0	0	0	
10	0	0	0	0	0	512	0	0	0	0	
11	0	0	0	0	1	513	0	0	0	0	
12	0	0	0	0	0	514	0	0	0	0	
13	0	0	0	0	0	514	0	0	0	0	
14	0	0	0	0	0	515	0	0	0	0	
15	0	0	0	0	0	515	0	0	0	0	
0	0	0	0	0	0	515	0	0	0	0	
1	0	0	0	0	0	515	0	0	0	0	
2	0	0	0	0	0	514	0	0	0	0	
3	0	0	0	0	1	513	0	0	0	0	
4	0	0	0	0	0	512	0	0	0	0	
5	0	0	0	0	0	512	0	0	0	0	
6	0	0	0	0	0	512	0	0	0	0	
7	0	0	0	0	0	512	0	0	0	0	
8	0	0	0	0	0	512	0	0	0	0	
9	0	0	0	0	0	512	0	0	0	0	
10	0	0	0	0	0	512	0	0	0	0	
11	0	0	0	0	1	511	0	0	0	0	
12	0	0	0	0	0	511	0	0	0	0	
13	0	0	0	0	0	511	0	0	0	0	
14	0	0	0	0	0	510	0	0	0	0	
15	0	0	0	0	0	510	0	0	0	0	
0	0	0	0	0	0	510	0	0	0	0	
1	0	0	0	0	0	510	0	0	0	0	
2	0	0	0	0	0	510	0	0	0	0	
3	0	0	0	0	1	510	0	0	0	0	
4	0	0	0	0	0	510	0	0	0	0	
5	0	0	0	0	0	509	0	0	0	0	
6	0	0	0	0	0	509	0	0	0	0	
7	0	0	0	0	0	509	0	0	0	0	
8	0	0	0	0	0	508	0	0	0	0	
9	0	0	0	0	0	508	0	0	0	0	
10	0	0	0	0	0	510	0	0	0	0	
11	0	0	0	0	1	510	0	0	0	0	
12	0	0	0	0	0	511	0	0	0	0	
13	0	0	0	0	0	511	0	0	0	0	
14	0	0	0	0	0	511	0	0	0	0	
15	0	0	0	0	0	511	0	0	0	0	
0	0	0	0	0	0	511	0	0	0	0	
1	0	0	0	0	0	511	0	0	0	0	
2	0	0	0	0	0	511	0	0	0	0	
3	0	0	0	0	1	511	0	0	0	0	
4	0	0	0	0	0	511	0	0	0	0	
5	0	0	0	0	0	511	0	0	0	0	
6	0	0	0	0	0	510	0	0	0	0	
7	0	0	0	0	0	510	0	0	0	0	
8	0	0	0	0	0	510	0	0	0	0	
9	0	0	0	0	0	510	0	0	0	0	
10	0	0	0	0	0	510	0	0	0	0	
11	0	0	0	0	1	510	0	0	0	0	
12	0	0	0	0	0	509	0	0	0	0	
13	0	0	0	0	0	508	0	0	0	0	
14	0	0	0	0	0	508	0	0	0	0	
15	0	0	0	0	0	509	0	0	0	0	
0	0	0	0	0	0	509	0	0	0	0	
1	0	0	0	0	0	510	0	0	0	0	
2	0	0	0	0	0	510	0	0	0	0	
3	0	0	0	0	1	509	0	0	0	0	
4	0	0	0	0	0	509	0	0	0	0	
5	0	0	0	0	0	509	0	0	0	0	
6	0	0	0	0	0	508	0	0	0	0	
7	0	0	0	0	0	508	0	0	0	0	
8	0	0	0	0	0	509	0	0	0	0	
9	0	0	0	0	0	508	0	0	0	0	
10	0	0	0	0	0	508	0	0	0	0	
11	0	0	0	0	1	508	0	0	0	0	
12	0	0	0	0	0	508	0	0	0	0	
13	0	0	0	0	0	508	0	0	0	0	
14	0	0	0	0	0	508	0	0	0	0	
15	0	0	0	0	0	508	0	0	0	0	
0	0	0	0	0	0	508	0	0	0	0	
1	0	0	0	0	0	508	0	0	0	0	
2	0	0	0	0	0	508	0	0	0	0	
3	0	0	0	0	1	508	0	0	0	0	
4	0	0	0	0	0	509	0	0	0	0	
5	0	0	0	0	0	509	0	0	0	0	
6	0	0	0	0	0	510	0	0	0	0	
7	0	0	0	0	0	510	0	0	0	0	
8	0	0	0	0	0	510	0	0	0	0	
9	0	0	0	0	0	511	0	0	0	0	
10	0	0	0	0	0	511	0	0	0	0	
11	0	0	0	0	1	512	0	0	0	0	
12	0	0	0	0	0	512	0	0	0	0	
13	0	0	0	0	0	512	0	0	0	0	
14	0	0	0	0	0	512	0	0	0	0	
15	0	0	0	0	0	513	0	0	0	0	
0	0	0	0	0	0	514	0	0	0	0	
1	0	0	0	0	0	514	0	0	0	0	
2	0	0	0	0	0	514	0	0	0	0	
3	0	0	0	0	1	514	0	0	0	0	
4	0	0	0	0	0	515	0	0	0	0	
5	0	0	0	0	0	516	0	0	0	0	
6	0	0	0	0	0	516	0	0	0	0	
7	0	0	0	0	0	516	0	0	0	0	
8	0	0	0	0	0	515	0	0	0	0	
9	0	0	0	0	0	516	0	0	0	0	
10	0	0	0	0	0	516	0	0	0	0	
11	0	0	0	0	1	515	0	0	0	0	
12	0	0	0	0	0	516	0	0	0	0	
13	0	0	0	0	0	517	0	0	0	0	
14	0	0	0	0	0	518	0	0	0	0	
15	0	0	0	0	0	519	0	0	0	0	
0	0	0	0	0	0	519	0	0	0	0	
1	0	0	0	0	0	519	0	0	0	0	
2	0	0	0	0	0	519	0	0	0	0	
3	0	0	0	0	1	519	0	0	0	0	
4	0	0	0	0	0	520	0	0	0	0	
5	0	0	0	0	0	519	0	0	0	0	
6	0	0	0	0	0	519	0	0	0	0	
7	0	0	0	0	0	519	0	0	0	0	
8	0	0	0	0	0	518	0	0	0	0	
9	0	0	0	0	0	518	0	0	0	0	
10	0	0	0	0	0	518	0	0	0	0	
11	0	0	0	0	1	518	0	0	0	0	
12	0	0	0	0	0	518	0	0	0	0	
13	0	0	0	0	0	518	0	0	0	0	
14	0	0	0	0	0	518	0	0	0	0	
15	0	0	0	0	0	518	0	0	0	0	
0	0	0	0	0	0	517	0	0	0	0	
1	0	0	0	0	0	517	0	0	0	0	
2	0	0	0	0	0	517	0	0	0	0	
3	0	0	0	0	1	517	0	0	0	0	
4	0	0	0	0	0	516	0	0	0	0	
5	0	0	0	0	0	516	0	0	0	0	
6	0	0	0	0	0	517	0	0	0	0	
7	0	0	0	0	0	516	0	0	0	0	
8	0	0	0	0	0	516	0	0	0	0	
9	0	0	0	0	0	515	0	0	0	0	
10	0	0	0	0	0	515	0	0	0	0	
11	0	0	0	0	1	514	0	0	0	0	
12	0	0	0	0	0	513	0	0	0	0	
13	0	0	0	0	0	513	0	0	0	0	
14	0	0	0	0	0	513	0	0	0	0	
15	0	0	0	0	0	512	0	0	0	0	
0	0	0	0	0	0	512	0	0	0	0	
1	0	0	0	0	0	511	0	0	0	0	
2	0	0	0	0	0	510	0	0	0	0	
3	0	0	0	0	1	510	0	0	0	0	
4	0	0	0	0	0	509	0	0	0	0	
5	0	0	0	0	0	508	0	0	0	0	
6	0	0	0	0	0	507	0	0	0	0	
7	0	0	0	0	0	506	0	0	0	0	
8	0	0	0	0	0	505	0	0	0	0	
9	0	0	0	0	0	504	0	0	0	0	
10	0	0	0	0	0	503	0	0	0	0	
11	0	0	0	0	1	503	0	0	0	0	
12	0	0	0	0	0	502	0	0	0	0	
13	0	0	0	0	0	501	0	0	0	0	
14	0	0	0	0	0	500	0	0	0	0	
15	0	0	0	0	0	499	0	0	0	0	
0	0	0	0	0	0	498	0	0	0	0	
1	0	0	0	0	0	497	0	0	0	0	
2	0	0	0	0	0	496	0	0	0	0	
3	0	0	0	0	1	495	0	0	0	0	
4	0	0	0	0	0	494	0	0	0	0	
5	0	0	0	0	0	494	0	0	0	0	
6	0	0	0	0	0	494	0	0	0	0	
7	0	0	0	0	0	494	0	0	0	0	
8	0	0	0	0	0	493	0	0	0	0	
9	0	0	0	0	0	492	0	0	0	0	
10	0	0	0	0	0	492	0	0	0	0	
11	0	0	0	0	1	491	0	0	0	0	
12	0	0	0	0	0	489	0	0	0	0	
13	0	0	0	0	0	489	0	0	0	0	
14	0	0	0	0	0	488	0	0	0	0	
15	0	0	0	0	0	487	0	0	0	0	
0	0	0	0	0	0	487	0	0	0	0	
1	0	0	0	0	0	487	0	0	0	0	
2	0	0	0	0	0	487	0	0	0	0	
3	0	0	0	0	1	487	0	0	0	0	
4	0	0	0	0	0	487	0	0	0	0	
5	0	0	0	0	0	487	0	0	0	0	
6	0	0	0	0	0	487	0	0	0	0	
7	0	0	0	0	0	488	0	0	0	0	
8	0	0	0	0	0	487	0	0	0	0	
9	0	0	0	0	0	487	0	0	0	0	
10	0	0	0	0	0	487	0	0	0	0	
11	0	0	0	0	0	487	0	0	0	0	
12	0	0	0	0	0	487	0	0	0	0	
13	0	0	0	0	0	487	0	0	0	0	
14	0	0	0	0	0	487	0	0	0	0	
15	0	0	0	0	0	487	0	0	0	0	
0	0	0	0	0	0	487	0	0	0	0	
1	0	0	0	0	0	487	0	0	0	0	
2	0	0	0	0	0	487	0	0	0	0	
3	0	0	0	0	0	487	0	0	0	0	
4	0	0	0	0	0	487	0	0	0	0	
5	0	0	0	0	0	486	0	0	0	0	
6	0	0	0	0	0	487	0	0	0	0	
7	0	0	0	0	0	487	0	0	0	0	
8	0	0	0	0	0	487	0	0	0	0	
9	0	0	0	0	0	487	0	0	0	0	
10	0	0	0	0	0	487	0	0	0	0	
11	0	0	0	0	0	487	0	0	0	0	
12	0	0	0	0	0	488	0	0	0	0	
13	0	0	0	0	0	488	0	0	0	0	
14	0	0	0	0	0	488	0	0	0	0	
15	0	0	0	0	0	487	0	0	0	0	
0	0	0	0	0	0	488	0	0	0	0	
1	0	0	0	0	0	488	0	0	0	0	
2	0	0	0	0	0	488	0	0	0	0	
3	0	0	0	0	1	488	0	0	0	0	
4	0	0	0	0	0	488	0	0	0	0	
5	0	0	0	0	0	488	0	0	0	0	
6	0	0	0	0	0	489	0	0	0	0	
7	0	0	0	0	0	489	0	0	0	0	
8	0	0	0	0	0	489	0	0	0	0	
9	0	0	0	0	0	489	0	0	0	0	
10	0	0	0	0	0	490	0	0	0	0	
11	0	0	0	0	1	489	0	0	0	0	
12	0	0	0	0	0	490	0	0	0	0	
13	0	0	0	0	0	491	0	0	0	0	
14	0	0	0	0	0	491	0	0	0	0	
15	0	0	0	0	0	491	0	0	0	0	
0	0	0	0	0	0	492	0	0	0	0	
1	0	0	0	0	0	492	0	0	0	0	
2	0	0	0	0	0	493	0	0	0	0	
3	0	0	0	0	1	493	0	0	0	0	
4	0	0	0	0	0	494	0	0	0	0	
5	0	0	0	0	0	495	0	0	0	0	
6	0	0	0	0	0	496	0	0	0	0	
7	0	0	0	0	0	496	0	0	0	0	
8	0	0	0	0	0	497	0	0	0	0	
9	0	0	0	0	0	496	0	0	0	0	
10	0	0	0	0	0	496	0	0	0	0	
11	0	0	0	0	1	496	0	0	0	0	
12	0	0	0	0	0	496	0	0	0	0	
13	0	0	0	0	0	497	0	0	0	0	
14	0	0	0	0	0	498	0	0	0	0	
15	0	0	0	0	0	497	0	0	0	0	
0	0	0	0	0	0	498	0	0	0	0	
1	0	0	0	0	0	498	0	0	0	0	
2	0	0	0	0	0	499	0	0	0	0	
3	0	0	0	0	1	499	0	0	0	0	
4	0	0	0	0	0	499	0	0	0	0	
5	0	0	0	0	0	499	0	0	0	0	
6	0	0	0	0	0	500	0	0	0	0	
7	0	0	0	0	0	500	0	0	0	0	
8	0	0	0	0	0	501	0	0	0	0	
9	0	0	0	0	0	502	0	0	0	0	
10	0	0	0	0	0	502	0	0	0	0	
11	0	0	0	0	1	503	0	0	0	0	
12	0	0	0	0	0	504	0	0	0	0	
