# OpenSignals Text File Format. Version 1
# {"00:21:08:35:15:13": {"position": 0, "device": "bitalino_rev", "device name": "00:21:08:35:15:13", "device connection": "BTH00:21:08:35:15:13", "sampling rate": 1000, "resolution": [4, 1, 1, 1, 1, 10, 10, 10, 10, 6, 6], "firmware version": 1282, "comments": "", "keywords": "", "mode": 0, "sync interval": 2, "date": "2025-4-28", "time": "19:6:33.917", "channels": [1, 2, 3, 4, 5, 6], "sensor": ["RAW", "RAW", "RAW", "RAW", "RAW", "RAW"], "label": ["A1", "A2", "A3", "A4", "A5", "A6"], "column": ["nSeq", "I1", "I2", "O1", "O2", "A1", "A2", "A3", "A4", "A5", "A6"], "special": [{}, {}, {}, {}, {}, {}], "digital IO": [0, 0, 1, 1]}}
# EndOfHeader
0	0	0	0	0	0	623	1	0	0	0	
1	0	0	0	0	0	588	0	0	0	0	
2	0	0	0	0	0	557	0	1	0	0	
3	0	0	0	0	0	529	0	0	0	0	
4	0	0	0	0	0	505	0	0	0	0	
5	0	0	0	0	4	483	0	0	0	0	
6	0	0	0	0	0	463	0	0	0	0	
7	0	0	0	0	0	446	0	0	0	0	
8	0	0	0	0	0	430	0	0	0	0	
9	0	0	0	0	0	416	0	0	0	0	
10	0	0	0	0	0	403	0	1	0	0	
11	0	0	0	0	0	391	0	0	0	0	
12	0	0	0	0	0	382	0	0	0	0	
13	0	0	0	0	4	372	0	0	0	0	
14	0	0	0	0	0	362	0	0	0	0	
15	0	0	0	0	0	350	0	0	0	0	
0	0	0	0	0	0	337	0	0	0	0	
1	0	0	0	0	0	325	0	0	0	0	
2	0	0	0	0	0	315	0	1	0	0	
3	0	0	0	0	0	308	0	0	0	0	
4	0	0	0	0	0	304	0	0	0	0	
5	0	0	0	0	4	302	0	0	0	0	
6	0	0	0	0	0	303	0	0	0	0	
7	0	0	0	0	0	308	0	0	0	0	
8	0	0	0	0	0	315	0	0	0	0	
9	0	0	0	0	0	323	0	0	0	0	
10	0	0	0	0	0	332	0	1	0	0	
11	0	0	0	0	0	342	0	0	0	0	
12	0	0	0	0	0	351	0	0	0	0	
13	0	0	0	0	1	359	0	0	0	0	
14	0	0	0	0	0	365	0	0	0	0	
15	0	0	0	0	0	371	0	0	0	0	
0	0	0	0	0	0	377	0	0	0	0	
1	0	0	0	0	0	384	0	0	0	0	
2	0	0	0	0	0	391	0	1	0	0	
3	0	0	0	0	0	397	0	0	0	0	
4	0	0	0	0	0	403	0	0	0	0	
5	0	0	0	0	1	409	0	0	0	0	
6	0	0	0	0	0	414	0	0	0	0	
7	0	0	0	0	0	419	0	0	0	0	
8	0	0	0	0	0	423	0	0	0	0	
9	0	0	0	0	0	427	0	0	0	0	
10	0	0	0	0	0	430	0	1	0	0	
11	0	0	0	0	0	433	0	0	0	0	
12	0	0	0	0	0	435	0	0	0	0	
13	0	0	0	0	1	437	0	0	0	0	
14	0	0	0	0	0	440	0	0	0	0	
15	0	0	0	0	0	442	0	0	0	0	
0	0	0	0	0	0	443	0	0	0	0	
1	0	0	0	0	0	444	0	0	0	0	
2	0	0	0	0	0	445	0	1	0	0	
3	0	0	0	0	0	446	0	0	0	0	
4	0	0	0	0	0	447	0	0	0	0	
5	0	0	0	0	4	449	0	0	0	0	
6	0	0	0	0	0	451	0	0	0	0	
7	0	0	0	0	0	452	0	0	0	0	
8	0	0	0	0	0	453	0	0	0	0	
9	0	0	0	0	0	454	0	0	0	0	
10	0	0	0	0	0	455	0	1	0	0	
11	0	0	0	0	0	455	0	0	0	0	
12	0	0	0	0	0	456	0	0	0	0	
13	0	0	0	0	4	458	0	0	0	0	
14	0	0	0	0	0	459	0	0	0	0	
15	0	0	0	0	0	460	0	0	0	0	
0	0	0	0	0	0	462	0	0	0	0	
1	0	0	0	0	0	463	0	0	0	0	
2	0	0	0	0	0	465	0	1	0	0	
3	0	0	0	0	0	466	0	0	0	0	
4	0	0	0	0	0	467	0	0	0	0	
5	0	0	0	0	4	468	0	0	0	0	
6	0	0	0	0	0	468	0	0	0	0	
7	0	0	0	0	0	470	0	0	0	0	
8	0	0	0	0	0	472	0	0	0	0	
9	0	0	0	0	0	472	0	0	0	0	
10	0	0	0	0	0	473	0	1	0	0	
11	0	0	0	0	0	473	0	0	0	0	
12	0	0	0	0	1	474	0	0	0	0	
13	0	0	0	0	4	475	0	0	0	0	
14	0	0	0	0	0	475	0	0	0	0	
15	0	0	0	0	0	476	0	0	0	0	
0	0	0	0	0	0	475	0	0	0	0	
1	0	0	0	0	0	475	0	0	0	0	
2	0	0	0	0	0	477	0	1	0	0	
3	0	0	0	0	0	479	0	0	0	0	
4	0	0	0	0	0	481	0	0	0	0	
5	0	0	0	0	4	482	0	0	0	0	
6	0	0	0	0	0	484	0	0	0	0	
7	0	0	0	0	0	486	0	0	0	0	
8	0	0	0	0	0	487	0	0	0	0	
9	0	0	0	0	0	488	0	0	0	0	
10	0	0	0	0	0	489	0	1	0	0	
11	0	0	0	0	0	491	0	0	0	0	
12	0	0	0	0	0	492	0	0	0	0	
13	0	0	0	0	4	493	0	0	0	0	
14	0	0	0	0	0	495	0	0	0	0	
15	0	0	0	0	0	495	0	0	0	0	
0	0	0	0	0	0	496	0	0	0	0	
1	0	0	0	0	0	497	0	0	0	0	
2	0	0	0	0	0	498	0	1	0	0	
3	0	0	0	0	0	500	0	0	0	0	
4	0	0	0	0	0	501	0	0	0	0	
5	0	0	0	0	4	501	0	0	0	0	
6	0	0	0	0	0	502	0	0	0	0	
7	0	0	0	0	0	503	0	0	0	0	
8	0	0	0	0	0	503	0	0	0	0	
9	0	0	0	0	0	504	0	0	0	0	
10	0	0	0	0	0	505	0	1	0	0	
11	0	0	0	0	0	505	1	0	0	0	
12	0	0	0	0	0	504	0	0	0	0	
13	0	0	0	0	4	505	0	0	0	0	
14	0	0	0	0	0	505	0	0	0	0	
15	0	0	0	0	0	504	0	0	0	0	
0	0	0	0	0	0	504	0	0	0	0	
1	0	0	0	0	0	504	0	0	0	0	
2	0	0	0	0	0	504	0	1	0	0	
3	0	0	0	0	0	504	0	0	0	0	
4	0	0	0	0	0	504	0	0	0	0	
5	0	0	0	0	4	504	0	0	0	0	
6	0	0	0	0	0	505	0	0	0	0	
7	0	0	0	0	0	506	0	0	0	0	
8	0	0	0	0	0	505	0	0	0	0	
9	0	0	0	0	0	505	0	0	0	0	
10	0	0	0	0	0	505	0	1	0	0	
11	0	0	0	0	0	506	0	0	0	0	
12	0	0	0	0	0	507	0	0	0	0	
13	0	0	0	0	4	507	0	0	0	0	
14	0	0	0	0	0	507	0	0	0	0	
15	0	0	0	0	0	506	0	0	0	0	
0	0	0	0	0	0	507	0	0	0	0	
1	0	0	0	0	0	507	0	0	0	0	
2	0	0	0	0	0	507	0	1	0	0	
3	0	0	0	0	0	508	0	0	0	0	
4	0	0	0	0	0	510	0	0	0	0	
5	0	0	0	0	4	509	0	0	0	0	
6	0	0	0	0	0	510	0	0	0	0	
7	0	0	0	0	0	511	0	0	0	0	
8	0	0	0	0	0	512	0	0	0	0	
9	0	0	0	0	0	512	0	0	0	0	
10	0	0	0	0	0	511	0	1	0	0	
11	0	0	0	0	0	511	0	0	0	0	
12	0	0	0	0	0	510	0	0	0	0	
13	0	0	0	0	2	509	0	0	0	0	
14	0	0	0	0	0	509	0	0	0	0	
15	0	0	0	0	0	508	0	0	0	0	
0	0	0	0	0	0	509	0	0	0	0	
1	0	0	0	0	0	508	0	0	0	0	
2	0	0	0	0	0	508	0	1	0	0	
3	0	0	0	0	0	509	0	0	0	0	
4	0	0	0	0	0	510	0	0	0	0	
5	0	0	0	0	2	511	0	0	0	0	
6	0	0	0	0	0	510	0	0	0	0	
7	0	0	0	0	0	510	0	0	0	0	
8	0	0	0	0	0	510	0	0	0	0	
9	0	0	0	0	0	511	0	0	0	0	
10	0	0	0	0	0	510	0	1	0	0	
11	0	0	0	0	0	510	0	0	0	0	
12	0	0	0	0	1	509	0	0	0	0	
13	0	0	0	0	4	509	0	0	0	0	
14	0	0	0	0	0	510	0	0	0	0	
15	0	0	0	0	0	512	0	0	0	0	
0	0	0	0	0	0	513	0	0	0	0	
1	0	0	0	0	0	514	0	0	0	0	
2	0	0	0	0	0	515	0	1	0	0	
3	0	0	0	0	0	518	0	0	0	0	
4	0	0	0	0	0	520	0	0	0	0	
5	0	0	0	0	4	519	0	0	0	0	
6	0	0	0	0	0	519	0	0	0	0	
7	0	0	0	0	0	520	0	0	0	0	
8	0	0	0	0	0	520	0	0	0	0	
9	0	0	0	0	0	520	0	0	0	0	
10	0	0	0	0	0	520	0	1	0	0	
11	0	0	0	0	0	520	0	0	0	0	
12	0	0	0	0	0	519	0	0	0	0	
13	0	0	0	0	4	519	0	0	0	0	
14	0	0	0	0	0	519	0	0	0	0	
15	0	0	0	0	0	518	0	0	0	0	
0	0	0	0	0	0	518	0	0	0	0	
1	0	0	0	0	0	518	0	0	0	0	
2	0	0	0	0	0	518	0	1	0	0	
3	0	0	0	0	0	518	0	0	0	0	
4	0	0	0	0	0	518	0	0	0	0	
5	0	0	0	0	4	518	0	0	0	0	
6	0	0	0	0	0	519	0	0	0	0	
7	0	0	0	0	0	519	0	0	0	0	
8	0	0	0	0	0	519	0	0	0	0	
9	0	0	0	0	0	519	0	0	0	0	
10	0	0	0	0	0	519	0	1	0	0	
11	0	0	0	0	0	519	0	0	0	0	
12	0	0	0	0	0	519	0	0	0	0	
13	0	0	0	0	4	519	0	0	0	0	
14	0	0	0	0	0	519	0	0	0	0	
15	0	0	0	0	0	519	0	0	0	0	
0	0	0	0	0	0	518	0	0	0	0	
1	0	0	0	0	0	518	0	0	0	0	
2	0	0	0	0	0	518	0	1	0	0	
3	0	0	0	0	0	518	0	0	0	0	
4	0	0	0	0	0	518	0	0	0	0	
5	0	0	0	0	4	517	0	0	0	0	
6	0	0	0	0	0	518	0	0	0	0	
7	0	0	0	0	0	518	0	0	0	0	
8	0	0	0	0	0	518	0	0	0	0	
9	0	0	0	0	0	517	0	0	0	0	
10	0	0	0	0	0	518	0	1	0	0	
11	0	0	0	0	0	517	0	0	0	0	
12	0	0	0	0	0	517	0	0	0	0	
13	0	0	0	0	4	516	0	0	0	0	
14	0	0	0	0	0	516	0	0	0	0	
15	0	0	0	0	0	516	0	0	0	0	
0	0	0	0	0	0	516	0	0	0	0	
1	0	0	0	0	0	516	0	0	0	0	
2	0	0	0	0	0	516	0	1	0	0	
3	0	0	0	0	0	516	0	0	0	0	
4	0	0	0	0	0	517	0	0	0	0	
5	0	0	0	0	4	517	0	0	0	0	
6	0	0	0	0	0	517	0	0	0	0	
7	0	0	0	0	0	516	0	0	0	0	
8	0	0	0	0	0	517	0	0	0	0	
9	0	0	0	0	0	517	0	0	0	0	
10	0	0	0	0	0	518	0	1	0	0	
11	0	0	0	0	0	518	0	0	0	0	
12	0	0	0	0	0	518	0	0	0	0	
13	0	0	0	0	4	518	0	0	0	0	
14	0	0	0	0	0	519	0	0	0	0	
15	0	0	0	0	0	518	0	0	0	0	
0	0	0	0	0	0	519	0	0	0	0	
1	0	0	0	0	0	519	0	0	0	0	
2	0	0	0	0	0	520	0	1	0	0	
3	0	0	0	0	0	521	1	0	0	0	
4	0	0	0	0	0	521	0	0	0	0	
5	0	0	0	0	4	521	0	0	0	0	
6	0	0	0	0	0	522	0	0	0	0	
7	0	0	0	0	0	522	0	0	0	0	
8	0	0	0	0	0	522	0	0	0	0	
9	0	0	0	0	0	523	0	0	0	0	
10	0	0	0	0	0	523	0	1	0	0	
11	0	0	0	0	0	524	0	0	0	0	
12	0	0	0	0	0	523	0	0	0	0	
13	0	0	0	0	4	524	0	0	0	0	
14	0	0	0	0	0	524	0	0	0	0	
15	0	0	0	0	0	523	0	0	0	0	
0	0	0	0	0	0	521	0	0	0	0	
1	0	0	0	0	0	521	0	0	0	0	
2	0	0	0	0	0	520	0	1	0	0	
3	0	0	0	0	0	519	0	0	0	0	
4	0	0	0	0	0	519	0	0	0	0	
5	0	0	0	0	1	519	0	0	0	0	
6	0	0	0	0	0	519	0	0	0	0	
7	0	0	0	0	0	519	0	0	0	0	
8	0	0	0	0	0	520	0	0	0	0	
9	0	0	0	0	0	521	0	0	0	0	
10	0	0	0	0	0	523	0	1	0	0	
11	0	0	0	0	0	522	0	0	0	0	
12	0	0	0	0	0	522	0	0	0	0	
13	0	0	0	0	1	522	0	0	0	0	
14	0	0	0	0	0	523	0	0	0	0	
15	0	0	0	0	0	523	0	0	0	0	
0	0	0	0	0	0	523	0	0	0	0	
1	0	0	0	0	0	522	0	0	0	0	
2	0	0	0	0	0	521	0	1	0	0	
3	0	0	0	0	0	521	0	0	0	0	
4	0	0	0	0	0	520	0	0	0	0	
5	0	0	0	0	1	519	0	0	0	0	
6	0	0	0	0	0	518	0	0	0	0	
7	0	0	0	0	0	517	0	0	0	0	
8	0	0	0	0	0	517	0	0	0	0	
9	0	0	0	0	0	516	0	0	0	0	
10	0	0	0	0	0	515	0	1	0	0	
11	0	0	0	0	0	514	0	0	0	0	
12	0	0	0	0	0	514	0	0	0	0	
13	0	0	0	0	4	513	0	0	0	0	
14	0	0	0	0	0	512	0	0	0	0	
15	0	0	0	0	0	511	0	0	0	0	
0	0	0	0	0	0	511	0	0	0	0	
1	0	0	0	0	0	510	0	0	0	0	
2	0	0	0	0	0	509	0	1	0	0	
3	0	0	0	0	0	507	0	0	0	0	
4	0	0	0	0	0	506	0	0	0	0	
5	0	0	0	0	4	505	0	0	0	0	
6	0	0	0	0	0	504	0	0	0	0	
7	0	0	0	0	0	504	0	0	0	0	
8	0	0	0	0	0	503	0	0	0	0	
9	0	0	0	0	0	502	0	0	0	0	
10	0	0	0	0	0	501	0	1	0	0	
11	0	0	0	0	0	500	0	0	0	0	
12	0	0	0	0	0	500	0	0	0	0	
13	0	0	0	0	4	499	0	0	0	0	
14	0	0	0	0	0	498	0	0	0	0	
15	0	0	0	0	0	497	0	0	0	0	
0	0	0	0	0	0	497	0	0	0	0	
1	0	0	0	0	0	497	0	0	0	0	
2	0	0	0	0	0	496	0	1	0	0	
3	0	0	0	0	0	495	0	0	0	0	
4	0	0	0	0	0	495	0	0	0	0	
5	0	0	0	0	4	493	0	0	0	0	
6	0	0	0	0	0	493	0	0	0	0	
7	0	0	0	0	0	492	0	0	0	0	
8	0	0	0	0	0	492	0	0	0	0	
9	0	0	0	0	0	493	0	0	0	0	
10	0	0	0	0	0	492	0	1	0	0	
11	0	0	0	0	0	492	0	0	0	0	
12	0	0	0	0	0	491	0	0	0	0	
13	0	0	0	0	4	490	0	0	0	0	
14	0	0	0	0	0	489	0	0	0	0	
15	0	0	0	0	0	488	0	0	0	0	
0	0	0	0	0	0	487	0	0	0	0	
1	0	0	0	0	0	487	0	0	0	0	
2	0	0	0	0	0	486	0	1	0	0	
3	0	0	0	0	0	486	0	0	0	0	
4	0	0	0	0	0	486	0	0	0	0	
5	0	0	0	0	4	485	0	0	0	0	
6	0	0	0	0	0	486	0	0	0	0	
7	0	0	0	0	0	486	0	0	0	0	
8	0	0	0	0	0	486	0	0	0	0	
9	0	0	0	0	0	487	0	0	0	0	
10	0	0	0	0	0	487	0	1	0	0	
11	0	0	0	0	0	487	0	0	0	0	
12	0	0	0	0	0	486	0	0	0	0	
13	0	0	0	0	4	486	0	0	0	0	
14	0	0	0	0	0	486	0	0	0	0	
15	0	0	0	0	0	486	0	0	0	0	
0	0	0	0	0	0	486	0	0	0	0	
1	0	0	0	0	0	486	0	0	0	0	
2	0	0	0	0	0	486	0	1	0	0	
3	0	0	0	0	0	486	0	0	0	0	
4	0	0	0	0	0	487	0	0	0	0	
5	0	0	0	0	4	487	0	0	0	0	
6	0	0	0	0	0	487	0	0	0	0	
7	0	0	0	0	0	487	0	0	0	0	
8	0	0	0	0	0	487	0	0	0	0	
9	0	0	0	0	0	487	0	0	0	0	
10	0	0	0	0	0	488	0	1	0	0	
11	0	0	0	0	0	488	0	0	0	0	
12	0	0	0	0	0	490	0	0	0	0	
13	0	0	0	0	4	489	0	0	0	0	
14	0	0	0	0	0	490	0	0	0	0	
15	0	0	0	0	0	490	0	0	0	0	
0	0	0	0	0	0	491	0	0	0	0	
1	0	0	0	0	0	491	0	0	0	0	
2	0	0	0	0	0	492	0	1	0	0	
3	0	0	0	0	0	494	0	0	0	0	
4	0	0	0	0	0	495	0	0	0	0	
5	0	0	0	0	4	496	0	0	0	0	
6	0	0	0	0	0	496	0	0	0	0	
7	0	0	0	0	0	497	0	0	0	0	
8	0	0	0	0	0	499	0	0	0	0	
9	0	0	0	0	0	500	0	0	0	0	
10	0	0	0	0	0	500	0	1	0	0	
11	0	0	0	0	0	500	0	0	0	0	
12	0	0	0	0	0	501	0	0	0	0	
13	0	0	0	0	4	501	0	0	0	0	
14	0	0	0	0	0	501	0	0	0	0	
15	0	0	0	0	0	502	0	0	0	0	
0	0	0	0	0	0	502	0	0	0	0	
1	0	0	0	0	0	502	0	0	0	0	
2	0	0	0	0	0	504	0	1	0	0	
3	0	0	0	0	0	504	0	0	0	0	
4	0	0	0	0	0	504	0	0	0	0	
5	0	0	0	0	2	504	0	0	0	0	
6	0	0	0	0	0	504	0	0	0	0	
7	0	0	0	0	0	504	0	0	0	0	
8	0	0	0	0	0	504	0	0	0	0	
9	0	0	0	0	0	504	0	0	0	0	
10	0	0	0	0	0	503	0	1	0	0	
11	0	0	0	0	0	502	0	0	0	0	
12	0	0	0	0	0	502	0	0	0	0	
13	0	0	0	0	2	502	0	0	0	0	
14	0	0	0	0	0	501	0	0	0	0	
15	0	0	0	0	0	500	0	0	0	0	
0	0	0	0	0	0	500	0	0	0	0	
1	0	0	0	0	0	499	0	0	0	0	
2	0	0	0	0	0	499	0	1	0	0	
3	0	0	0	0	0	499	0	0	0	0	
4	0	0	0	0	0	500	0	0	0	0	
5	0	0	0	0	2	500	0	0	0	0	
6	0	0	0	0	0	501	0	0	0	0	
7	0	0	0	0	0	501	0	0	0	0	
8	0	0	0	0	0	501	0	0	0	0	
9	0	0	0	0	0	500	0	0	0	0	
10	0	0	0	0	0	501	0	1	0	0	
11	0	0	0	0	0	503	0	0	0	0	
12	0	0	0	0	0	504	0	0	0	0	
13	0	0	0	0	4	507	0	0	0	0	
14	0	0	0	0	0	509	0	0	0	0	
15	0	0	0	0	0	510	0	0	0	0	
0	0	0	0	0	0	511	0	0	0	0	
1	0	0	0	0	0	511	0	0	0	0	
2	0	0	0	0	0	512	0	1	0	0	
3	0	0	0	0	0	512	0	0	0	0	
4	0	0	0	0	1	513	0	0	0	0	
5	0	0	0	0	4	513	0	0	0	0	
6	0	0	0	0	0	514	0	0	0	0	
7	0	0	0	0	0	514	0	0	0	0	
8	0	0	0	0	0	514	0	0	0	0	
9	0	0	0	0	0	514	0	0	0	0	
10	0	0	0	0	0	515	0	1	0	0	
11	0	0	0	0	0	515	0	0	0	0	
12	0	0	0	0	0	516	0	0	0	0	
13	0	0	0	0	4	516	0	0	0	0	
14	0	0	0	0	0	516	0	0	0	0	
15	0	0	0	0	0	517	0	0	0	0	
0	0	0	0	0	0	517	0	0	0	0	
1	0	0	0	0	0	518	0	0	0	0	
2	0	0	0	0	0	518	0	1	0	0	
3	0	0	0	0	0	519	0	0	0	0	
4	0	0	0	0	0	520	0	0	0	0	
5	0	0	0	0	4	521	0	0	0	0	
6	0	0	0	0	0	521	0	0	0	0	
7	0	0	0	0	0	521	0	0	0	0	
8	0	0	0	0	0	521	0	0	0	0	
9	0	0	0	0	0	521	0	0	0	0	
10	0	0	0	0	0	521	0	1	0	0	
11	0	0	0	0	0	521	0	0	0	0	
12	0	0	0	0	0	522	0	0	0	0	
13	0	0	0	0	4	521	0	0	0	0	
14	0	0	0	0	0	521	0	0	0	0	
15	0	0	0	0	0	521	0	0	0	0	
0	0	0	0	0	0	521	0	0	0	0	
1	0	0	0	0	0	521	0	0	0	0	
2	0	0	0	0	0	521	0	1	0	0	
3	0	0	0	0	0	520	0	0	0	0	
4	0	0	0	0	0	519	0	0	0	0	
5	0	0	0	0	4	518	0	0	0	0	
6	0	0	0	0	0	519	0	0	0	0	
7	0	0	0	0	0	519	0	0	0	0	
8	0	0	0	0	0	519	0	0	0	0	
9	0	0	0	0	0	519	0	0	0	0	
10	0	0	0	0	0	519	0	1	0	0	
11	0	0	0	0	0	519	0	0	0	0	
12	0	0	0	0	0	518	0	0	0	0	
13	0	0	0	0	4	517	0	0	0	0	
14	0	0	0	0	0	515	0	0	0	0	
15	0	0	0	0	0	514	0	0	0	0	
0	0	0	0	0	0	514	0	0	0	0	
1	0	0	0	0	0	514	0	0	0	0	
2	0	0	0	0	0	515	0	1	0	0	
3	0	0	0	0	0	515	0	0	0	0	
4	0	0	0	0	0	514	0	0	0	0	
5	0	0	0	0	4	514	0	0	0	0	
6	0	0	0	0	0	514	0	0	0	0	
7	0	0	0	0	0	513	0	0	0	0	
8	0	0	0	0	0	512	0	0	0	0	
9	0	0	0	0	0	512	0	0	0	0	
10	0	0	0	0	0	511	0	1	0	0	
11	0	0	0	0	0	511	0	0	0	0	
12	0	0	0	0	0	511	0	0	0	0	
13	0	0	0	0	4	511	0	0	0	0	
14	0	0	0	0	0	511	0	0	0	0	
15	0	0	0	0	0	511	0	0	0	0	
0	0	0	0	0	0	511	0	0	0	0	
1	0	0	0	0	0	511	0	0	0	0	
2	0	0	0	0	0	510	0	1	0	0	
3	0	0	0	0	0	510	0	0	0	0	
4	0	0	0	0	0	509	0	0	0	0	
5	0	0	0	0	4	509	0	0	0	0	
6	0	0	0	0	0	509	0	0	0	0	
7	0	0	0	0	0	508	0	0	0	0	
8	0	0	0	0	0	508	0	0	0	0	
9	0	0	0	0	0	508	0	0	0	0	
10	0	0	0	0	0	507	0	1	0	0	
11	0	0	0	0	0	506	0	0	0	0	
12	0	0	0	0	0	505	0	0	0	0	
13	0	0	0	0	1	504	0	0	0	0	
14	0	0	0	0	0	504	0	0	0	0	
15	0	0	0	0	0	503	0	0	0	0	
0	0	0	0	0	0	502	0	0	0	0	
1	0	0	0	0	0	500	0	0	0	0	
2	0	0	0	0	0	500	0	1	0	0	
3	0	0	0	0	0	500	0	0	0	0	
4	0	0	0	0	0	500	0	0	0	0	
5	0	0	0	0	1	500	0	0	0	0	
6	0	0	0	0	0	500	0	0	0	0	
7	0	0	0	0	0	500	0	0	0	0	
8	0	0	0	0	0	500	0	0	0	0	
9	0	0	0	0	0	499	0	0	0	0	
10	0	0	0	0	0	500	0	1	0	0	
11	0	0	0	0	0	500	0	0	0	0	
12	0	0	0	0	0	500	0	0	0	0	
13	0	0	0	0	1	500	0	0	0	0	
14	0	0	0	0	0	501	0	0	0	0	
15	0	0	0	0	0	501	0	0	0	0	
0	0	0	0	0	0	500	0	0	0	0	
1	0	0	0	0	0	501	0	0	0	0	
2	0	0	0	0	0	500	0	1	0	0	
3	0	0	0	0	0	500	0	0	0	0	
4	0	0	0	0	0	501	0	0	0	0	
5	0	0	0	0	4	500	0	0	0	0	
6	0	0	0	0	0	501	0	0	0	0	
7	0	0	0	0	0	501	0	0	0	0	
8	0	0	0	0	0	501	0	0	0	0	
9	0	0	0	0	0	502	0	0	0	0	
10	0	0	0	0	0	502	0	1	0	0	
11	0	0	0	0	0	503	0	0	0	0	
12	0	0	0	0	0	503	0	0	0	0	
13	0	0	0	0	4	502	0	0	0	0	
14	0	0	0	0	0	502	0	0	0	0	
15	0	0	0	0	0	501	0	0	0	0	
0	0	0	0	0	0	500	0	0	0	0	
1	0	0	0	0	0	500	0	0	0	0	
2	0	0	0	0	0	501	0	1	0	0	
3	0	0	0	0	0	502	0	0	0	0	
4	0	0	0	0	0	502	0	0	0	0	
5	0	0	0	0	4	501	0	0	0	0	
6	0	0	0	0	0	500	0	0	0	0	
7	0	0	0	0	0	500	0	0	0	0	
8	0	0	0	0	0	500	0	0	0	0	
9	0	0	0	0	0	500	0	0	0	0	
10	0	0	0	0	0	500	0	1	0	0	
11	0	0	0	0	0	500	0	0	0	0	
12	0	0	0	0	0	501	0	0	0	0	
13	0	0	0	0	4	501	0	0	0	0	
14	0	0	0	0	0	500	0	0	0	0	
15	0	0	0	0	0	500	0	0	0	0	
0	0	0	0	0	0	500	0	0	0	0	
1	0	0	0	0	0	500	0	0	0	0	
2	0	0	0	0	0	499	0	1	0	0	
3	0	0	0	0	0	499	0	0	0	0	
4	0	0	0	0	0	499	0	0	0	0	
5	0	0	0	0	4	499	0	0	0	0	
6	0	0	0	0	0	499	0	0	0	0	
7	0	0	0	0	0	500	0	0	0	0	
8	0	0	0	0	0	500	0	0	0	0	
9	0	0	0	0	0	501	0	0	0	0	
10	0	0	0	0	0	501	0	1	0	0	
11	0	0	0	0	0	500	0	0	0	0	
12	0	0	0	0	0	501	0	0	0	0	
13	0	0	0	0	4	501	0	0	0	0	
14	0	0	0	0	0	501	0	0	0	0	
15	0	0	0	0	0	500	0	0	0	0	
0	0	0	0	0	0	501	0	0	0	0	
1	0	0	0	0	0	502	0	0	0	0	
2	0	0	0	0	0	502	0	1	0	0	
3	0	0	0	0	0	503	0	0	0	0	
4	0	0	0	0	0	503	0	0	0	0	
5	0	0	0	0	4	503	0	0	0	0	
6	0	0	0	0	0	503	0	0	0	0	
7	0	0	0	0	0	504	0	0	0	0	
8	0	0	0	0	0	503	0	0	0	0	
9	0	0	0	0	0	504	0	0	0	0	
10	0	0	0	0	0	505	0	1	0	0	
11	0	0	0	0	0	506	0	0	0	0	
12	0	0	0	0	0	508	0	0	0	0	
13	0	0	0	0	4	508	0	0	0	0	
14	0	0	0	0	0	507	0	0	0	0	
15	0	0	0	0	0	506	0	0	0	0	
0	0	0	0	0	0	507	0	0	0	0	
1	0	0	0	0	0	507	0	0	0	0	
2	0	0	0	0	0	507	0	1	0	0	
3	0	0	0	0	0	505	1	0	0	0	
4	0	0	0	0	0	505	0	0	0	0	
5	0	0	0	0	4	504	0	0	0	0	
6	0	0	0	0	0	503	0	0	0	0	
7	0	0	0	0	0	503	0	0	0	0	
8	0	0	0	0	0	502	0	0	0	0	
9	0	0	0	0	0	501	0	0	0	0	
10	0	0	0	0	0	501	0	1	0	0	
11	0	0	0	0	0	500	0	0	0	0	
12	0	0	0	0	0	500	0	0	0	0	
13	0	0	0	0	4	500	0	0	0	0	
14	0	0	0	0	0	500	0	0	0	0	
15	0	0	0	0	0	500	0	0	0	0	
0	0	0	0	0	0	501	0	0	0	0	
1	0	0	0	0	0	502	0	0	0	0	
2	0	0	0	0	0	501	0	1	0	0	
3	0	0	0	0	0	501	0	0	0	0	
4	0	0	0	0	0	502	0	0	0	0	
5	0	0	0	0	4	501	0	0	0	0	
6	0	0	0	0	0	501	0	0	0	0	
7	0	0	0	0	0	501	0	0	0	0	
8	0	0	0	0	0	501	0	0	0	0	
9	0	0	0	0	0	501	0	0	0	0	
10	0	0	0	0	0	502	0	1	0	0	
11	0	0	0	0	0	502	0	0	0	0	
12	0	0	0	0	0	502	0	0	0	0	
13	0	0	0	0	2	502	0	0	0	0	
14	0	0	0	0	0	502	0	0	0	0	
15	0	0	0	0	0	499	0	0	0	0	
0	0	0	0	0	0	498	0	0	0	0	
1	0	0	0	0	0	497	0	0	0	0	
2	0	0	0	0	0	497	0	1	0	0	
3	0	0	0	0	0	496	0	0	0	0	
4	0	0	0	0	0	496	0	0	0	0	
5	0	0	0	0	2	495	0	0	0	0	
6	0	0	0	0	0	495	0	0	0	0	
7	0	0	0	0	0	495	0	0	0	0	
8	0	0	0	0	0	495	0	0	0	0	
9	0	0	0	0	0	494	0	0	0	0	
10	0	0	0	0	0	493	0	1	0	0	
11	0	0	0	0	0	494	0	0	0	0	
12	0	0	0	0	0	493	0	0	0	0	
13	0	0	0	0	2	494	0	0	0	0	
14	0	0	0	0	0	494	0	0	0	0	
15	0	0	0	0	0	494	0	0	0	0	
0	0	0	0	0	0	494	0	0	0	0	
1	0	0	0	0	0	496	0	0	0	0	
2	0	0	0	0	0	499	0	1	0	0	
3	0	0	0	0	0	500	0	0	0	0	
4	0	0	0	0	0	502	0	0	0	0	
5	0	0	0	0	4	503	0	0	0	0	
6	0	0	0	0	0	503	0	0	0	0	
7	0	0	0	0	0	503	0	0	0	0	
8	0	0	0	0	0	504	0	0	0	0	
9	0	0	0	0	0	504	0	0	0	0	
10	0	0	0	0	0	505	0	1	0	0	
11	0	0	0	0	0	505	0	0	0	0	
12	0	0	0	0	0	506	0	0	0	0	
13	0	0	0	0	4	506	0	0	0	0	
14	0	0	0	0	0	506	0	0	0	0	
15	0	0	0	0	0	506	0	0	0	0	
0	0	0	0	0	0	504	0	0	0	0	
1	0	0	0	0	0	504	0	0	0	0	
2	0	0	0	0	0	504	0	1	0	0	
3	0	0	0	0	0	502	0	0	0	0	
4	0	0	0	0	0	502	0	0	0	0	
5	0	0	0	0	4	502	0	0	0	0	
6	0	0	0	0	0	502	0	0	0	0	
7	0	0	0	0	0	502	0	0	0	0	
8	0	0	0	0	0	502	0	0	0	0	
9	0	0	0	0	0	503	0	0	0	0	
10	0	0	0	0	0	503	0	1	0	0	
11	0	0	0	0	0	504	0	0	0	0	
12	0	0	0	0	0	505	0	0	0	0	
13	0	0	0	0	4	507	0	0	0	0	
14	0	0	0	0	0	508	0	0	0	0	
15	0	0	0	0	0	510	0	0	0	0	
0	0	0	0	0	0	511	0	0	0	0	
1	0	0	0	0	0	512	0	0	0	0	
2	0	0	0	0	0	513	0	1	0	0	
3	0	0	0	0	0	513	0	0	0	0	
4	0	0	0	0	0	514	0	0	0	0	
5	0	0	0	0	4	514	0	0	0	0	
6	0	0	0	0	0	515	0	0	0	0	
7	0	0	0	0	0	516	0	0	0	0	
8	0	0	0	0	0	516	0	0	0	0	
9	0	0	0	0	0	517	0	0	0	0	
10	0	0	0	0	0	519	0	1	0	0	
11	0	0	0	0	0	520	1	0	0	0	
12	0	0	0	0	0	523	0	0	0	0	
13	0	0	0	0	4	524	0	0	0	0	
14	0	0	0	0	0	524	0	0	0	0	
15	0	0	0	0	0	525	0	0	0	0	
0	0	0	0	0	0	525	0	0	0	0	
1	0	0	0	0	0	526	0	0	0	0	
2	0	0	0	0	0	527	0	1	0	0	
3	0	0	0	0	0	530	1	0	0	0	
4	0	0	0	0	0	532	0	0	0	0	
5	0	0	0	0	4	534	0	0	0	0	
6	0	0	0	0	0	534	0	0	0	0	
7	0	0	0	0	0	536	0	0	0	0	
8	0	0	0	0	0	536	0	0	0	0	
9	0	0	0	0	0	537	0	0	0	0	
10	0	0	0	0	0	538	0	1	0	0	
11	0	0	0	0	0	538	1	0	0	0	
12	0	0	0	0	0	540	0	0	0	0	
13	0	0	0	0	4	541	0	0	0	0	
14	0	0	0	0	0	542	0	0	0	0	
15	0	0	0	0	0	543	0	0	0	0	
0	0	0	0	0	0	545	0	0	0	0	
1	0	0	0	0	0	547	0	0	0	0	
2	0	0	0	0	0	548	0	1	0	0	
3	0	0	0	0	0	549	1	0	0	0	
4	0	0	0	0	0	549	0	0	0	0	
5	0	0	0	0	4	548	0	0	0	0	
6	0	0	0	0	0	546	0	0	0	0	
7	0	0	0	0	0	545	0	0	0	0	
8	0	0	0	0	0	546	0	0	0	0	
9	0	0	0	0	0	547	0	0	0	0	
10	0	0	0	0	0	548	0	1	0	0	
11	0	0	0	0	0	548	1	0	0	0	
12	0	0	0	0	0	549	0	0	0	0	
13	0	0	0	0	4	547	0	0	0	0	
14	0	0	0	0	0	547	0	0	0	0	
15	0	0	0	0	0	547	0	0	0	0	
0	0	0	0	0	0	547	0	0	0	0	
1	0	0	0	0	0	546	0	0	0	0	
2	0	0	0	0	0	544	0	1	0	0	
3	0	0	0	0	0	542	1	0	0	0	
4	0	0	0	0	0	541	0	0	0	0	
5	0	0	0	0	4	540	0	0	0	0	
6	0	0	0	0	0	540	0	0	0	0	
7	0	0	0	0	0	541	0	0	0	0	
8	0	0	0	0	0	540	0	0	0	0	
9	0	0	0	0	0	538	0	0	0	0	
10	0	0	0	0	0	537	0	1	0	0	
11	0	0	0	0	0	536	0	0	0	0	
12	0	0	0	0	0	535	0	0	0	0	
13	0	0	0	0	1	534	0	0	0	0	
14	0	0	0	0	0	533	0	0	0	0	
15	0	0	0	0	0	533	0	0	0	0	
0	0	0	0	0	0	532	0	0	0	0	
1	0	0	0	0	0	531	0	0	0	0	
2	0	0	0	0	0	531	0	1	0	0	
3	0	0	0	0	0	530	0	0	0	0	
4	0	0	0	0	0	530	0	0	0	0	
5	0	0	0	0	1	527	0	0	0	0	
6	0	0	0	0	0	526	0	0	0	0	
7	0	0	0	0	0	524	0	0	0	0	
8	0	0	0	0	0	524	0	0	0	0	
9	0	0	0	0	0	523	0	0	0	0	
10	0	0	0	0	0	522	0	1	0	0	
11	0	0	0	0	0	520	0	0	0	0	
12	0	0	0	0	0	519	0	0	0	0	
13	0	0	0	0	1	518	0	0	0	0	
14	0	0	0	0	0	517	0	0	0	0	
15	0	0	0	0	0	517	0	0	0	0	
0	0	0	0	0	0	517	0	0	0	0	
1	0	0	0	0	0	518	0	0	0	0	
2	0	0	0	0	0	519	0	1	0	0	
3	0	0	0	0	0	521	0	0	0	0	
4	0	0	0	0	0	523	0	0	0	0	
5	0	0	0	0	4	525	0	0	0	0	
6	0	0	0	0	0	526	0	0	0	0	
7	0	0	0	0	0	528	0	0	0	0	
8	0	0	0	0	0	528	0	0	0	0	
9	0	0	0	0	0	528	0	0	0	0	
10	0	0	0	0	0	529	0	1	0	0	
11	0	0	0	0	0	529	1	0	0	0	
12	0	0	0	0	0	529	0	0	0	0	
13	0	0	0	0	4	530	0	0	0	0	
14	0	0	0	0	0	530	0	0	0	0	
15	0	0	0	0	0	530	0	0	0	0	
0	0	0	0	0	0	529	0	0	0	0	
1	0	0	0	0	0	527	0	0	0	0	
2	0	0	0	0	0	524	0	1	0	0	
3	0	0	0	0	0	521	1	0	0	0	
4	0	0	0	0	0	520	0	0	0	0	
5	0	0	0	0	4	519	0	0	0	0	
6	0	0	0	0	0	518	0	0	0	0	
7	0	0	0	0	0	516	0	0	0	0	
8	0	0	0	0	0	515	0	0	0	0	
9	0	0	0	0	0	513	0	0	0	0	
10	0	0	0	0	0	513	0	1	0	0	
11	0	0	0	0	0	515	0	0	0	0	
12	0	0	0	0	0	516	0	0	0	0	
13	0	0	0	0	4	515	0	0	0	0	
14	0	0	0	0	0	512	0	0	0	0	
15	0	0	0	0	0	512	0	0	0	0	
0	0	0	0	0	0	511	0	0	0	0	
1	0	0	0	0	0	510	0	0	0	0	
2	0	0	0	0	0	509	0	1	0	0	
3	0	0	0	0	0	510	0	0	0	0	
4	0	0	0	0	0	511	0	0	0	0	
5	0	0	0	0	4	511	0	0	0	0	
6	0	0	0	0	0	511	0	0	0	0	
7	0	0	0	0	0	511	0	0	0	0	
8	0	0	0	0	0	508	0	0	0	0	
9	0	0	0	0	0	505	0	0	0	0	
10	0	0	0	0	0	503	0	1	0	0	
11	0	0	0	0	0	500	0	0	0	0	
12	0	0	0	0	0	500	0	0	0	0	
13	0	0	0	0	4	497	0	0	0	0	
14	0	0	0	0	0	494	0	0	0	0	
15	0	0	0	0	0	492	0	0	0	0	
0	0	0	0	0	0	491	0	0	0	0	
1	0	0	0	0	0	490	0	0	0	0	
2	0	0	0	0	0	490	0	1	0	0	
3	0	0	0	0	0	491	0	0	0	0	
4	0	0	0	0	1	491	0	0	0	0	
5	0	0	0	0	4	490	0	0	0	0	
6	0	0	0	0	0	488	0	0	0	0	
7	0	0	0	0	0	487	0	0	0	0	
8	0	0	0	0	0	487	0	0	0	0	
9	0	0	0	0	0	489	0	0	0	0	
10	0	0	0	0	0	492	0	1	0	0	
11	0	0	0	0	0	494	0	0	0	0	
12	0	0	0	0	0	496	0	0	0	0	
13	0	0	0	0	4	497	0	0	0	0	
14	0	0	0	0	0	499	0	0	0	0	
15	0	0	0	0	0	502	0	0	0	0	
0	0	0	0	0	0	504	0	0	0	0	
1	0	0	0	0	0	506	0	0	0	0	
2	0	0	0	0	0	508	0	1	0	0	
3	0	0	0	0	0	509	0	0	0	0	
4	0	0	0	0	0	511	0	0	0	0	
5	0	0	0	0	4	511	0	0	0	0	
6	0	0	0	0	0	511	0	0	0	0	
7	0	0	0	0	0	510	0	0	0	0	
8	0	0	0	0	0	509	0	0	0	0	
9	0	0	0	0	0	507	0	0	0	0	
10	0	0	0	0	0	507	0	1	0	0	
11	0	0	0	0	0	508	0	0	0	0	
12	0	0	0	0	0	509	0	0	0	0	
13	0	0	0	0	4	508	0	0	0	0	
14	0	0	0	0	0	508	0	0	0	0	
15	0	0	0	0	0	508	0	0	0	0	
0	0	0	0	0	0	508	0	0	0	0	
1	0	0	0	0	0	505	0	0	0	0	
2	0	0	0	0	0	505	0	1	0	0	
3	0	0	0	0	0	504	0	0	0	0	
4	0	0	0	0	0	504	0	0	0	0	
5	0	0	0	0	2	503	0	0	0	0	
6	0	0	0	0	0	501	0	0	0	0	
7	0	0	0	0	0	499	0	0	0	0	
8	0	0	0	0	0	498	0	0	0	0	
9	0	0	0	0	0	496	0	0	0	0	
10	0	0	0	0	0	495	0	1	0	0	
11	0	0	0	0	0	492	0	0	0	0	
12	0	0	0	0	0	489	0	0	0	0	
13	0	0	0	0	2	487	0	0	0	0	
14	0	0	0	0	0	485	0	0	0	0	
15	0	0	0	0	0	482	0	0	0	0	
0	0	0	0	0	0	481	0	0	0	0	
1	0	0	0	0	0	481	0	0	0	0	
2	0	0	0	0	0	480	0	1	0	0	
3	0	0	0	0	0	480	0	0	0	0	
4	0	0	0	0	0	480	0	0	0	0	
5	0	0	0	0	2	480	0	0	0	0	
6	0	0	0	0	0	479	0	0	0	0	
7	0	0	0	0	0	479	0	0	0	0	
8	0	0	0	0	0	478	0	0	0	0	
9	0	0	0	0	0	479	0	0	0	0	
10	0	0	0	0	0	481	0	1	0	0	
11	0	0	0	0	0	483	0	0	0	0	
12	0	0	0	0	0	485	0	0	0	0	
13	0	0	0	0	4	486	0	0	0	0	
14	0	0	0	0	0	488	0	0	0	0	
15	0	0	0	0	0	490	0	0	0	0	
0	0	0	0	0	0	494	0	0	0	0	
1	0	0	0	0	0	497	0	0	0	0	
2	0	0	0	0	0	500	0	1	0	0	
3	0	0	0	0	0	503	0	0	0	0	
4	0	0	0	0	0	506	0	0	0	0	
5	0	0	0	0	4	511	0	0	0	0	
6	0	0	0	0	0	515	0	0	0	0	
7	0	0	0	0	0	518	0	0	0	0	
8	0	0	0	0	0	522	0	0	0	0	
9	0	0	0	0	0	527	0	0	0	0	
10	0	0	0	0	0	532	0	1	0	0	
11	0	0	0	0	0	536	1	0	0	0	
12	0	0	0	0	0	541	0	0	0	0	
13	0	0	0	0	4	544	0	0	0	0	
14	0	0	0	0	0	547	0	0	0	0	
15	0	0	0	0	0	550	0	0	0	0	
0	0	0	0	0	0	552	0	0	0	0	
1	0	0	0	0	0	555	0	0	0	0	
2	0	0	0	0	0	559	0	1	0	0	
3	0	0	0	0	0	561	1	0	0	0	
4	0	0	0	0	0	564	0	0	0	0	
5	0	0	0	0	4	567	0	0	0	0	
6	0	0	0	0	0	570	0	0	0	0	
7	0	0	0	0	0	575	0	0	0	0	
8	0	0	0	0	0	577	0	0	0	0	
9	0	0	0	0	0	580	0	0	0	0	
10	0	0	0	0	0	582	0	1	0	0	
11	0	0	0	0	0	583	1	0	0	0	
12	0	0	0	0	0	585	0	0	0	0	
13	0	0	0	0	4	585	0	0	0	0	
14	0	0	0	0	0	585	0	0	0	0	
15	0	0	0	0	0	584	0	0	0	0	
0	0	0	0	0	0	582	0	0	0	0	
1	0	0	0	0	0	579	0	0	0	0	
2	0	0	0	0	0	576	0	1	0	0	
3	0	0	0	0	0	574	1	0	0	0	
4	0	0	0	0	0	572	0	0	0	0	
5	0	0	0	0	4	570	0	0	0	0	
6	0	0	0	0	0	570	0	0	0	0	
7	0	0	0	0	0	572	0	0	0	0	
8	0	0	0	0	0	576	0	0	0	0	
9	0	0	0	0	0	580	0	0	0	0	
10	0	0	0	0	0	586	0	1	0	0	
11	0	0	0	0	0	593	1	0	0	0	
12	0	0	0	0	0	600	0	0	0	0	
13	0	0	0	0	4	608	0	0	0	0	
14	0	0	0	0	0	618	0	0	0	0	
15	0	0	0	0	0	629	0	0	0	0	
0	0	0	0	0	0	641	1	0	0	0	
1	0	0	0	0	0	652	0	0	0	0	
2	0	0	0	0	0	663	1	1	0	0	
3	0	0	0	0	0	674	1	0	0	0	
4	0	0	0	0	0	688	1	0	0	0	
5	0	0	0	0	4	703	1	0	0	0	
6	0	0	0	0	0	719	1	0	0	0	
7	0	0	0	0	0	735	1	0	0	0	
8	0	0	0	0	0	751	1	0	0	0	
9	0	0	0	0	0	768	1	0	0	0	
10	0	0	0	0	0	788	1	1	0	0	
11	0	0	0	0	0	813	2	0	0	0	
12	0	0	0	0	0	839	2	0	0	0	
13	0	0	0	0	4	864	2	0	0	0	
14	0	0	0	0	0	889	2	0	0	0	
15	0	0	0	0	0	918	2	0	0	0	
0	0	0	0	0	0	945	2	0	0	0	
1	0	0	0	0	0	969	2	0	0	0	
2	0	0	0	0	0	993	3	1	0	0	
3	0	0	0	0	0	1012	3	0	0	0	
4	0	0	0	0	0	1022	3	0	0	0	
5	0	0	0	0	4	1022	3	0	0	0	
6	0	0	0	0	0	1022	3	0	0	0	
7	0	0	0	0	0	1022	3	0	0	0	
8	0	0	0	0	0	1022	3	0	0	0	
9	0	0	0	0	0	1022	3	0	0	0	
10	0	0	0	0	0	1022	3	1	0	0	
11	0	0	0	0	0	1016	3	0	0	0	
12	0	0	0	0	0	983	3	0	0	0	
13	0	0	0	0	4	943	2	0	0	0	
14	0	0	0	0	0	895	2	0	0	0	
15	0	0	0	0	0	844	1	0	0	0	
0	0	0	0	0	0	792	1	0	0	0	
1	0	0	0	0	0	743	1	0	0	0	
2	0	0	0	0	0	698	1	1	0	0	
3	0	0	0	0	0	657	1	0	0	0	
4	0	0	0	0	0	621	0	0	0	0	
5	0	0	0	0	1	590	0	0	0	0	
6	0	0	0	0	0	560	0	0	0	0	
7	0	0	0	0	0	533	0	0	0	0	
8	0	0	0	0	0	510	0	0	0	0	
9	0	0	0	0	0	489	0	0	0	0	
10	0	0	0	0	0	471	0	1	0	0	
11	0	0	0	0	0	452	0	0	0	0	
12	0	0	0	0	0	436	0	0	0	0	
13	0	0	0	0	1	423	0	0	0	0	
14	0	0	0	0	0	411	0	0	0	0	
15	0	0	0	0	0	398	0	0	0	0	
0	0	0	0	0	0	385	0	0	0	0	
1	0	0	0	0	0	372	0	0	0	0	
2	0	0	0	0	0	359	0	1	0	0	
3	0	0	0	0	0	347	0	0	0	0	
4	0	0	0	0	0	336	0	0	0	0	
5	0	0	0	0	1	328	0	0	0	0	
6	0	0	0	0	0	325	0	0	0	0	
7	0	0	0	0	0	324	0	0	0	0	
8	0	0	0	0	0	327	0	0	0	0	
9	0	0	0	0	0	332	0	0	0	0	
10	0	0	0	0	0	339	0	1	0	0	
11	0	0	0	0	0	348	0	0	0	0	
12	0	0	0	0	0	356	0	0	0	0	
13	0	0	0	0	4	364	0	0	0	0	
14	0	0	0	0	0	372	0	0	0	0	
15	0	0	0	0	0	379	0	0	0	0	
0	0	0	0	0	0	386	0	0	0	0	
1	0	0	0	0	0	392	0	0	0	0	
2	0	0	0	0	0	399	0	1	0	0	
3	0	0	0	0	0	406	0	0	0	0	
4	0	0	0	0	0	413	0	0	0	0	
5	0	0	0	0	4	419	0	0	0	0	
6	0	0	0	0	0	425	0	0	0	0	
7	0	0	0	0	0	430	0	0	0	0	
8	0	0	0	0	0	435	0	0	0	0	
9	0	0	0	0	0	438	0	0	0	0	
10	0	0	0	0	0	441	0	1	0	0	
11	0	0	0	0	0	443	0	0	0	0	
12	0	0	0	0	0	444	0	0	0	0	
13	0	0	0	0	4	446	0	0	0	0	
14	0	0	0	0	0	448	0	0	0	0	
15	0	0	0	0	0	448	0	0	0	0	
0	0	0	0	0	0	448	0	0	0	0	
1	0	0	0	0	0	449	0	0	0	0	
2	0	0	0	0	0	449	0	1	0	0	
3	0	0	0	0	0	449	0	0	0	0	
4	0	0	0	0	0	449	0	0	0	0	
5	0	0	0	0	4	451	0	0	0	0	
6	0	0	0	0	0	452	0	0	0	0	
7	0	0	0	0	0	451	0	0	0	0	
8	0	0	0	0	0	452	0	0	0	0	
9	0	0	0	0	0	451	0	0	0	0	
10	0	0	0	0	0	451	0	1	0	0	
11	0	0	0	0	0	451	0	0	0	0	
12	0	0	0	0	0	451	0	0	0	0	
13	0	0	0	0	4	451	0	0	0	0	
14	0	0	0	0	0	452	0	0	0	0	
15	0	0	0	0	0	454	0	0	0	0	
0	0	0	0	0	0	455	0	0	0	0	
1	0	0	0	0	0	456	0	0	0	0	
2	0	0	0	0	0	457	0	1	0	0	
3	0	0	0	0	0	460	0	0	0	0	
4	0	0	0	0	0	460	0	0	0	0	
5	0	0	0	0	4	460	0	0	0	0	
6	0	0	0	0	0	460	0	0	0	0	
7	0	0	0	0	0	461	0	0	0	0	
8	0	0	0	0	0	463	0	0	0	0	
9	0	0	0	0	0	463	0	0	0	0	
10	0	0	0	0	0	463	0	1	0	0	
11	0	0	0	0	0	464	0	0	0	0	
12	0	0	0	0	0	466	0	0	0	0	
13	0	0	0	0	4	467	0	0	0	0	
14	0	0	0	0	0	467	0	0	0	0	
15	0	0	0	0	0	468	0	0	0	0	
0	0	0	0	0	0	469	0	0	0	0	
1	0	0	0	0	0	471	0	0	0	0	
2	0	0	0	0	0	472	0	1	0	0	
3	0	0	0	0	0	473	0	0	0	0	
4	0	0	0	0	0	474	0	0	0	0	
5	0	0	0	0	4	474	0	0	0	0	
6	0	0	0	0	0	476	0	0	0	0	
7	0	0	0	0	0	476	0	0	0	0	
8	0	0	0	0	0	476	0	0	0	0	
9	0	0	0	0	0	478	0	0	0	0	
10	0	0	0	0	0	481	0	1	0	0	
11	0	0	0	0	0	483	0	0	0	0	
12	0	0	0	0	0	485	0	0	0	0	
13	0	0	0	0	4	486	0	0	0	0	
14	0	0	0	0	0	488	0	0	0	0	
15	0	0	0	0	0	489	0	0	0	0	
0	0	0	0	0	0	489	0	0	0	0	
1	0	0	0	0	0	490	0	0	0	0	
2	0	0	0	0	0	493	0	1	0	0	
3	0	0	0	0	0	495	0	0	0	0	
4	0	0	0	0	0	498	0	0	0	0	
5	0	0	0	0	4	501	0	0	0	0	
6	0	0	0	0	0	504	0	0	0	0	
7	0	0	0	0	0	508	0	0	0	0	
8	0	0	0	0	0	510	0	0	0	0	
9	0	0	0	0	0	511	0	0	0	0	
10	0	0	0	0	0	512	0	1	0	0	
11	0	0	0	0	0	512	0	0	0	0	
12	0	0	0	0	0	514	0	0	0	0	
13	0	0	0	0	4	515	0	0	0	0	
14	0	0	0	0	0	515	0	0	0	0	
15	0	0	0	0	0	515	0	0	0	0	
0	0	0	0	0	0	514	0	0	0	0	
1	0	0	0	0	0	514	0	0	0	0	
2	0	0	0	0	0	513	0	1	0	0	
3	0	0	0	0	0	514	0	0	0	0	
4	0	0	0	0	0	515	0	0	0	0	
5	0	0	0	0	2	516	0	0	0	0	
6	0	0	0	0	0	516	0	0	0	0	
7	0	0	0	0	0	517	0	0	0	0	
8	0	0	0	0	0	516	0	0	0	0	
9	0	0	0	0	0	516	0	0	0	0	
10	0	0	0	0	0	515	0	1	0	0	
11	0	0	0	0	0	516	0	0	0	0	
12	0	0	0	0	0	516	0	0	0	0	
13	0	0	0	0	2	517	0	0	0	0	
14	0	0	0	0	0	517	0	0	0	0	
15	0	0	0	0	0	516	0	0	0	0	
0	0	0	0	0	0	515	0	0	0	0	
1	0	0	0	0	0	514	0	0	0	0	
2	0	0	0	0	0	513	0	1	0	0	
3	0	0	0	0	0	512	0	0	0	0	
4	0	0	0	0	0	513	0	0	0	0	
5	0	0	0	0	4	513	0	0	0	0	
6	0	0	0	0	0	515	0	0	0	0	
7	0	0	0	0	0	516	0	0	0	0	
8	0	0	0	0	0	516	0	0	0	0	
9	0	0	0	0	0	516	0	0	0	0	
10	0	0	0	0	0	518	0	1	0	0	
11	0	0	0	0	0	518	0	0	0	0	
12	0	0	0	0	0	518	0	0	0	0	
13	0	0	0	0	4	518	0	0	0	0	
14	0	0	0	0	0	518	0	0	0	0	
15	0	0	0	0	0	520	0	0	0	0	
0	0	0	0	0	0	521	0	0	0	0	
1	0	0	0	0	0	522	0	0	0	0	
2	0	0	0	0	0	523	0	1	0	0	
3	0	0	0	0	0	524	1	0	0	0	
4	0	0	0	0	0	524	0	0	0	0	
5	0	0	0	0	4	523	0	0	0	0	
6	0	0	0	0	0	523	0	0	0	0	
7	0	0	0	0	0	523	0	0	0	0	
8	0	0	0	0	0	522	0	0	0	0	
9	0	0	0	0	0	522	0	0	0	0	
10	0	0	0	0	0	521	0	1	0	0	
11	0	0	0	0	0	520	0	0	0	0	
12	0	0	0	0	0	520	0	0	0	0	
13	0	0	0	0	4	520	0	0	0	0	
14	0	0	0	0	0	521	0	0	0	0	
15	0	0	0	0	0	521	0	0	0	0	
0	0	0	0	0	0	520	0	0	0	0	
1	0	0	0	0	0	520	0	0	0	0	
2	0	0	0	0	0	521	0	1	0	0	
3	0	0	0	0	0	521	1	0	0	0	
4	0	0	0	0	0	520	0	0	0	0	
5	0	0	0	0	4	516	0	0	0	0	
6	0	0	0	0	0	514	0	0	0	0	
7	0	0	0	0	0	512	0	0	0	0	
8	0	0	0	0	0	511	0	0	0	0	
9	0	0	0	0	0	511	0	0	0	0	
10	0	0	0	0	0	511	0	1	0	0	
11	0	0	0	0	0	511	1	0	0	0	
12	0	0	0	0	0	511	0	0	0	0	
13	0	0	0	0	4	511	0	0	0	0	
14	0	0	0	0	0	511	0	0	0	0	
15	0	0	0	0	0	512	0	0	0	0	
0	0	0	0	0	0	512	0	0	0	0	
1	0	0	0	0	0	513	0	0	0	0	
2	0	0	0	0	0	514	0	1	0	0	
3	0	0	0	0	0	514	0	0	0	0	
4	0	0	0	0	0	515	0	0	0	0	
5	0	0	0	0	4	516	0	0	0	0	
6	0	0	0	0	0	516	0	0	0	0	
7	0	0	0	0	0	516	0	0	0	0	
8	0	0	0	0	0	516	0	0	0	0	
9	0	0	0	0	0	516	0	0	0	0	
10	0	0	0	0	0	515	0	1	0	0	
11	0	0	0	0	0	515	0	0	0	0	
12	0	0	0	0	0	516	0	0	0	0	
13	0	0	0	0	4	515	0	0	0	0	
14	0	0	0	0	0	515	0	0	0	0	
15	0	0	0	0	0	513	0	0	0	0	
0	0	0	0	0	0	512	0	0	0	0	
1	0	0	0	0	0	511	0	0	0	0	
2	0	0	0	0	0	510	0	1	0	0	
3	0	0	0	0	0	510	0	0	0	0	
4	0	0	0	0	0	510	0	0	0	0	
5	0	0	0	0	4	508	0	0	0	0	
6	0	0	0	0	0	508	0	0	0	0	
7	0	0	0	0	0	508	0	0	0	0	
8	0	0	0	0	0	507	0	0	0	0	
9	0	0	0	0	0	507	0	0	0	0	
10	0	0	0	0	0	507	0	1	0	0	
11	0	0	0	0	0	509	0	0	0	0	
12	0	0	0	0	0	511	0	0	0	0	
13	0	0	0	0	4	511	0	0	0	0	
14	0	0	0	0	0	511	0	0	0	0	
15	0	0	0	0	0	512	0	0	0	0	
0	0	0	0	0	0	513	0	0	0	0	
1	0	0	0	0	0	514	0	0	0	0	
2	0	0	0	0	0	515	0	1	0	0	
3	0	0	0	0	0	516	0	0	0	0	
4	0	0	0	0	0	516	0	0	0	0	
5	0	0	0	0	4	516	0	0	0	0	
6	0	0	0	0	0	515	0	0	0	0	
7	0	0	0	0	0	514	0	0	0	0	
8	0	0	0	0	0	513	0	0	0	0	
9	0	0	0	0	0	510	0	0	0	0	
10	0	0	0	0	0	509	0	1	0	0	
11	0	0	0	0	0	509	0	0	0	0	
12	0	0	0	0	0	509	0	0	0	0	
13	0	0	0	0	1	509	0	0	0	0	
14	0	0	0	0	0	509	0	0	0	0	
15	0	0	0	0	0	510	0	0	0	0	
0	0	0	0	0	0	510	0	0	0	0	
1	0	0	0	0	0	511	0	0	0	0	
2	0	0	0	0	0	512	0	1	0	0	
3	0	0	0	0	0	512	0	0	0	0	
4	0	0	0	0	0	512	0	0	0	0	
5	0	0	0	0	1	511	0	0	0	0	
6	0	0	0	0	0	510	0	0	0	0	
7	0	0	0	0	0	509	0	0	0	0	
8	0	0	0	0	0	506	0	0	0	0	
9	0	0	0	0	0	504	0	0	0	0	
10	0	0	0	0	0	504	0	1	0	0	
11	0	0	0	0	0	501	0	0	0	0	
12	0	0	0	0	0	499	0	0	0	0	
13	0	0	0	0	1	497	0	0	0	0	
14	0	0	0	0	0	496	0	0	0	0	
15	0	0	0	0	0	495	0	0	0	0	
0	0	0	0	0	0	496	0	0	0	0	
1	0	0	0	0	0	496	0	0	0	0	
2	0	0	0	0	0	495	0	1	0	0	
3	0	0	0	0	0	495	0	0	0	0	
4	0	0	0	0	0	497	0	0	0	0	
5	0	0	0	0	4	497	0	0	0	0	
6	0	0	0	0	0	499	0	0	0	0	
7	0	0	0	0	0	499	0	0	0	0	
8	0	0	0	0	0	499	0	0	0	0	
9	0	0	0	0	0	500	0	0	0	0	
10	0	0	0	0	0	500	0	1	0	0	
11	0	0	0	0	0	499	0	0	0	0	
12	0	0	0	0	0	499	0	0	0	0	
13	0	0	0	0	4	502	0	0	0	0	
14	0	0	0	0	0	503	0	0	0	0	
15	0	0	0	0	0	504	0	0	0	0	
0	0	0	0	0	0	504	0	0	0	0	
1	0	0	0	0	0	504	0	0	0	0	
2	0	0	0	0	0	504	0	1	0	0	
3	0	0	0	0	0	504	0	0	0	0	
4	0	0	0	0	0	504	0	0	0	0	
5	0	0	0	0	4	505	0	0	0	0	
6	0	0	0	0	0	506	0	0	0	0	
7	0	0	0	0	0	507	0	0	0	0	
8	0	0	0	0	0	505	0	0	0	0	
9	0	0	0	0	0	502	0	0	0	0	
10	0	0	0	0	0	499	0	1	0	0	
11	0	0	0	0	0	495	0	0	0	0	
12	0	0	0	0	0	492	0	0	0	0	
13	0	0	0	0	4	489	0	0	0	0	
14	0	0	0	0	0	487	0	0	0	0	
15	0	0	0	0	0	487	0	0	0	0	
0	0	0	0	0	0	486	0	0	0	0	
1	0	0	0	0	0	483	0	0	0	0	
2	0	0	0	0	0	479	0	1	0	0	
3	0	0	0	0	0	476	0	0	0	0	
4	0	0	0	0	0	474	0	0	0	0	
5	0	0	0	0	4	472	0	0	0	0	
6	0	0	0	0	0	471	0	0	0	0	
7	0	0	0	0	0	469	0	0	0	0	
8	0	0	0	0	0	468	0	0	0	0	
9	0	0	0	0	0	467	0	0	0	0	
10	0	0	0	0	0	464	0	1	0	0	
11	0	0	0	0	0	462	0	0	0	0	
12	0	0	0	0	0	460	0	0	0	0	
13	0	0	0	0	4	459	0	0	0	0	
14	0	0	0	0	0	459	0	0	0	0	
15	0	0	0	0	0	460	0	0	0	0	
0	0	0	0	0	0	461	0	0	0	0	
1	0	0	0	0	0	460	0	0	0	0	
2	0	0	0	0	0	459	0	1	0	0	
3	0	0	0	0	0	457	0	0	0	0	
4	0	0	0	0	1	456	0	0	0	0	
5	0	0	0	0	4	455	0	0	0	0	
6	0	0	0	0	0	455	0	0	0	0	
7	0	0	0	0	0	457	0	0	0	0	
8	0	0	0	0	0	458	0	0	0	0	
9	0	0	0	0	0	457	0	0	0	0	
10	0	0	0	0	0	457	0	1	0	0	
11	0	0	0	0	0	456	0	0	0	0	
12	0	0	0	0	0	455	0	0	0	0	
13	0	0	0	0	4	454	0	0	0	0	
14	0	0	0	0	0	454	0	0	0	0	
15	0	0	0	0	0	455	0	0	0	0	
0	0	0	0	0	0	456	0	0	0	0	
1	0	0	0	0	0	458	0	0	0	0	
2	0	0	0	0	0	458	0	1	0	0	
3	0	0	0	0	0	459	0	0	0	0	
4	0	0	0	0	0	460	0	0	0	0	
5	0	0	0	0	4	461	0	0	0	0	
6	0	0	0	0	0	463	0	0	0	0	
7	0	0	0	0	0	464	0	0	0	0	
8	0	0	0	0	0	467	0	0	0	0	
9	0	0	0	0	0	468	0	0	0	0	
10	0	0	0	0	0	469	0	1	0	0	
11	0	0	0	0	0	472	0	0	0	0	
12	0	0	0	0	0	478	0	0	0	0	
13	0	0	0	0	4	483	0	0	0	0	
14	0	0	0	0	0	489	0	0	0	0	
15	0	0	0	0	0	495	0	0	0	0	
0	0	0	0	0	0	500	0	0	0	0	
1	0	0	0	0	0	503	0	0	0	0	
2	0	0	0	0	0	505	0	1	0	0	
3	0	0	0	0	0	509	0	0	0	0	
4	0	0	0	0	0	513	0	0	0	0	
5	0	0	0	0	4	516	0	0	0	0	
6	0	0	0	0	0	519	0	0	0	0	
7	0	0	0	0	0	521	0	0	0	0	
8	0	0	0	0	0	524	0	0	0	0	
9	0	0	0	0	0	525	0	0	0	0	
10	0	0	0	0	0	524	0	1	0	0	
11	0	0	0	0	0	524	0	0	0	0	
12	0	0	0	0	0	523	0	0	0	0	
13	0	0	0	0	2	523	0	0	0	0	
14	0	0	0	0	0	523	0	0	0	0	
15	0	0	0	0	0	522	0	0	0	0	
0	0	0	0	0	0	522	0	0	0	0	
1	0	0	0	0	0	522	0	0	0	0	
2	0	0	0	0	0	520	0	1	0	0	
3	0	0	0	0	0	519	0	0	0	0	
4	0	0	0	0	0	520	0	0	0	0	
5	0	0	0	0	2	521	0	0	0	0	
6	0	0	0	0	0	522	0	0	0	0	
7	0	0	0	0	0	523	0	0	0	0	
8	0	0	0	0	0	523	0	0	0	0	
9	0	0	0	0	0	525	0	0	0	0	
10	0	0	0	0	0	528	0	1	0	0	
11	0	0	0	0	0	532	0	0	0	0	
12	0	0	0	0	0	534	0	0	0	0	
13	0	0	0	0	2	536	0	0	0	0	
14	0	0	0	0	0	538	0	0	0	0	
15	0	0	0	0	0	539	0	0	0	0	
0	0	0	0	0	0	540	0	0	0	0	
1	0	0	0	0	0	540	0	0	0	0	
2	0	0	0	0	0	541	0	1	0	0	
3	0	0	0	0	0	543	1	0	0	0	
4	0	0	0	0	0	546	0	0	0	0	
5	0	0	0	0	4	549	0	0	0	0	
6	0	0	0	0	0	551	0	0	0	0	
7	0	0	0	0	0	553	0	0	0	0	
8	0	0	0	0	0	555	0	0	0	0	
9	0	0	0	0	0	559	0	0	0	0	
10	0	0	0	0	0	563	0	1	0	0	
11	0	0	0	0	0	565	1	0	0	0	
12	0	0	0	0	0	568	0	0	0	0	
13	0	0	0	0	4	568	0	0	0	0	
14	0	0	0	0	0	567	0	0	0	0	
15	0	0	0	0	0	567	0	0	0	0	
0	0	0	0	0	0	567	0	0	0	0	
1	0	0	0	0	0	567	0	0	0	0	
2	0	0	0	0	0	566	0	1	0	0	
3	0	0	0	0	0	564	1	0	0	0	
4	0	0	0	0	1	562	0	0	0	0	
5	0	0	0	0	4	562	0	0	0	0	
6	0	0	0	0	0	561	0	0	0	0	
7	0	0	0	0	0	560	0	0	0	0	
8	0	0	0	0	0	559	0	0	0	0	
9	0	0	0	0	0	558	0	0	0	0	
10	0	0	0	0	0	557	0	1	0	0	
11	0	0	0	0	0	556	1	0	0	0	
12	0	0	0	0	0	556	0	0	0	0	
13	0	0	0	0	4	554	0	0	0	0	
14	0	0	0	0	0	556	0	0	0	0	
15	0	0	0	0	0	558	0	0	0	0	
0	0	0	0	0	0	560	0	0	0	0	
1	0	0	0	0	0	562	0	0	0	0	
2	0	0	0	0	0	563	0	1	0	0	
3	0	0	0	0	0	562	1	0	0	0	
4	0	0	0	0	0	562	0	0	0	0	
5	0	0	0	0	4	562	0	0	0	0	
6	0	0	0	0	0	562	0	0	0	0	
7	0	0	0	0	0	563	0	0	0	0	
8	0	0	0	0	0	563	0	0	0	0	
9	0	0	0	0	0	563	0	0	0	0	
10	0	0	0	0	0	564	0	1	0	0	
11	0	0	0	0	0	566	1	0	0	0	
12	0	0	0	0	0	568	0	0	0	0	
13	0	0	0	0	4	566	0	0	0	0	
14	0	0	0	0	0	563	0	0	0	0	
15	0	0	0	0	0	560	0	0	0	0	
0	0	0	0	0	0	557	0	0	0	0	
1	0	0	0	0	0	555	0	0	0	0	
2	0	0	0	0	0	553	0	1	0	0	
3	0	0	0	0	0	551	1	0	0	0	
4	0	0	0	0	0	548	0	0	0	0	
5	0	0	0	0	4	545	0	0	0	0	
6	0	0	0	0	0	543	0	0	0	0	
7	0	0	0	0	0	540	0	0	0	0	
8	0	0	0	0	0	536	0	0	0	0	
9	0	0	0	0	0	533	0	0	0	0	
10	0	0	0	0	0	531	0	1	0	0	
11	0	0	0	0	0	529	1	0	0	0	
12	0	0	0	0	0	528	0	0	0	0	
13	0	0	0	0	4	527	0	0	0	0	
14	0	0	0	0	0	525	0	0	0	0	
15	0	0	0	0	0	524	0	0	0	0	
0	0	0	0	0	0	525	0	0	0	0	
1	0	0	0	0	0	527	0	0	0	0	
2	0	0	0	0	0	528	0	1	0	0	
3	0	0	0	0	0	529	0	0	0	0	
4	0	0	0	0	0	530	0	0	0	0	
5	0	0	0	0	4	531	0	0	0	0	
6	0	0	0	0	0	533	0	0	0	0	
7	0	0	0	0	0	532	0	0	0	0	
8	0	0	0	0	0	532	0	0	0	0	
9	0	0	0	0	0	532	0	0	0	0	
10	0	0	0	0	0	533	0	1	0	0	
11	0	0	0	0	0	531	1	0	0	0	
12	0	0	0	0	0	530	0	0	0	0	
13	0	0	0	0	4	528	0	0	0	0	
14	0	0	0	0	0	526	0	0	0	0	
15	0	0	0	0	0	524	0	0	0	0	
0	0	0	0	0	0	523	0	0	0	0	
1	0	0	0	0	0	521	0	0	0	0	
2	0	0	0	0	0	520	0	1	0	0	
3	0	0	0	0	0	517	0	0	0	0	
4	0	0	0	0	0	515	0	0	0	0	
5	0	0	0	0	4	512	0	0	0	0	
6	0	0	0	0	0	511	0	0	0	0	
7	0	0	0	0	0	510	0	0	0	0	
8	0	0	0	0	0	510	0	0	0	0	
9	0	0	0	0	0	511	0	0	0	0	
10	0	0	0	0	0	512	0	1	0	0	
11	0	0	0	0	0	512	0	0	0	0	
12	0	0	0	0	0	513	0	0	0	0	
13	0	0	0	0	1	514	0	0	0	0	
14	0	0	0	0	0	515	0	0	0	0	
15	0	0	0	0	0	518	0	0	0	0	
0	0	0	0	0	0	519	0	0	0	0	
1	0	0	0	0	0	519	0	0	0	0	
2	0	0	0	0	0	519	0	1	0	0	
3	0	0	0	0	0	519	0	0	0	0	
4	0	0	0	0	0	520	0	0	0	0	
5	0	0	0	0	1	520	0	0	0	0	
6	0	0	0	0	0	520	0	0	0	0	
7	0	0	0	0	0	521	0	0	0	0	
8	0	0	0	0	0	523	0	0	0	0	
9	0	0	0	0	0	524	0	0	0	0	
10	0	0	0	0	0	524	0	1	0	0	
11	0	0	0	0	0	524	0	0	0	0	
12	0	0	0	0	0	524	0	0	0	0	
13	0	0	0	0	4	523	0	0	0	0	
14	0	0	0	0	0	522	0	0	0	0	
15	0	0	0	0	0	521	0	0	0	0	
0	0	0	0	0	0	522	0	0	0	0	
1	0	0	0	0	0	522	0	0	0	0	
2	0	0	0	0	0	521	0	1	0	0	
3	0	0	0	0	0	521	1	0	0	0	
4	0	0	0	0	0	523	0	0	0	0	
5	0	0	0	0	4	524	0	0	0	0	
6	0	0	0	0	0	525	0	0	0	0	
7	0	0	0	0	0	524	0	0	0	0	
8	0	0	0	0	0	524	0	0	0	0	
9	0	0	0	0	0	524	0	0	0	0	
10	0	0	0	0	0	524	0	1	0	0	
11	0	0	0	0	0	523	0	0	0	0	
12	0	0	0	0	0	524	0	0	0	0	
13	0	0	0	0	4	524	0	0	0	0	
14	0	0	0	0	0	524	0	0	0	0	
15	0	0	0	0	0	524	0	0	0	0	
0	0	0	0	0	0	525	0	0	0	0	
1	0	0	0	0	0	526	0	0	0	0	
2	0	0	0	0	0	528	0	1	0	0	
3	0	0	0	0	0	530	1	0	0	0	
4	0	0	0	0	0	534	0	0	0	0	
5	0	0	0	0	4	536	0	0	0	0	
6	0	0	0	0	0	536	0	0	0	0	
7	0	0	0	0	0	538	0	0	0	0	
8	0	0	0	0	0	539	0	0	0	0	
9	0	0	0	0	0	538	0	0	0	0	
10	0	0	0	0	0	537	0	1	0	0	
11	0	0	0	0	0	538	0	0	0	0	
12	0	0	0	0	0	540	0	0	0	0	
13	0	0	0	0	4	540	0	0	0	0	
14	0	0	0	0	0	540	0	0	0	0	
15	0	0	0	0	0	539	0	0	0	0	
0	0	0	0	0	0	537	0	0	0	0	
1	0	0	0	0	0	535	0	0	0	0	
2	0	0	0	0	0	532	0	1	0	0	
3	0	0	0	0	0	531	1	0	0	0	
4	0	0	0	0	0	529	0	0	0	0	
5	0	0	0	0	4	529	0	0	0	0	
6	0	0	0	0	0	527	0	0	0	0	
7	0	0	0	0	0	527	0	0	0	0	
8	0	0	0	0	0	527	0	0	0	0	
9	0	0	0	0	0	528	0	0	0	0	
10	0	0	0	0	0	529	0	1	0	0	
11	0	0	0	0	0	530	1	0	0	0	
12	0	0	0	0	0	531	0	0	0	0	
13	0	0	0	0	4	533	0	0	0	0	
14	0	0	0	0	0	536	0	0	0	0	
15	0	0	0	0	0	539	0	0	0	0	
0	0	0	0	0	0	540	0	0	0	0	
1	0	0	0	0	0	542	0	0	0	0	
2	0	0	0	0	0	544	0	1	0	0	
3	0	0	0	0	0	544	1	0	0	0	
4	0	0	0	0	0	546	0	0	0	0	
5	0	0	0	0	4	547	0	0	0	0	
6	0	0	0	0	0	547	0	0	0	0	
7	0	0	0	0	0	547	0	0	0	0	
8	0	0	0	0	0	548	0	0	0	0	
9	0	0	0	0	0	548	0	0	0	0	
10	0	0	0	0	0	547	0	1	0	0	
11	0	0	0	0	0	547	1	0	0	0	
12	0	0	0	0	0	546	0	0	0	0	
13	0	0	0	0	4	545	0	0	0	0	
14	0	0	0	0	0	545	0	0	0	0	
15	0	0	0	0	0	544	0	0	0	0	
0	0	0	0	0	0	544	0	0	0	0	
1	0	0	0	0	0	544	0	0	0	0	
2	0	0	0	0	0	545	0	1	0	0	
3	0	0	0	0	0	544	1	0	0	0	
4	0	0	0	0	0	543	0	0	0	0	
5	0	0	0	0	4	544	0	0	0	0	
6	0	0	0	0	0	545	0	0	0	0	
7	0	0	0	0	0	546	0	0	0	0	
8	0	0	0	0	0	546	0	0	0	0	
9	0	0	0	0	0	545	0	0	0	0	
10	0	0	0	0	0	544	0	1	0	0	
11	0	0	0	0	0	542	1	0	0	0	
12	0	0	0	0	1	540	0	0	0	0	
13	0	0	0	0	4	538	0	0	0	0	
14	0	0	0	0	0	536	0	0	0	0	
15	0	0	0	0	0	536	0	0	0	0	
0	0	0	0	0	0	536	0	0	0	0	
1	0	0	0	0	0	537	0	0	0	0	
2	0	0	0	0	0	537	0	1	0	0	
3	0	0	0	0	0	539	0	0	0	0	
4	0	0	0	0	0	539	0	0	0	0	
5	0	0	0	0	2	540	0	0	0	0	
6	0	0	0	0	0	539	0	0	0	0	
7	0	0	0	0	0	538	0	0	0	0	
8	0	0	0	0	0	538	0	0	0	0	
9	0	0	0	0	0	539	0	0	0	0	
10	0	0	0	0	0	539	0	1	0	0	
11	0	0	0	0	0	540	0	0	0	0	
12	0	0	0	0	0	538	0	0	0	0	
13	0	0	0	0	2	536	0	0	0	0	
14	0	0	0	0	0	537	0	0	0	0	
15	0	0	0	0	0	536	0	0	0	0	
0	0	0	0	0	0	537	0	0	0	0	
1	0	0	0	0	0	537	0	0	0	0	
2	0	0	0	0	0	536	0	1	0	0	
3	0	0	0	0	0	535	0	0	0	0	
4	0	0	0	0	0	534	0	0	0	0	
5	0	0	0	0	2	531	0	0	0	0	
6	0	0	0	0	0	527	0	0	0	0	
7	0	0	0	0	0	525	0	0	0	0	
8	0	0	0	0	0	521	0	0	0	0	
9	0	0	0	0	0	517	0	0	0	0	
10	0	0	0	0	0	512	0	1	0	0	
11	0	0	0	0	0	508	0	0	0	0	
12	0	0	0	0	0	507	0	0	0	0	
13	0	0	0	0	4	504	0	0	0	0	
14	0	0	0	0	0	502	0	0	0	0	
15	0	0	0	0	0	499	0	0	0	0	
0	0	0	0	0	0	495	0	0	0	0	
1	0	0	0	0	0	492	0	0	0	0	
2	0	0	0	0	0	491	0	1	0	0	
3	0	0	0	0	0	490	0	0	0	0	
4	0	0	0	0	0	489	0	0	0	0	
5	0	0	0	0	4	488	0	0	0	0	
6	0	0	0	0	0	487	0	0	0	0	
7	0	0	0	0	0	487	0	0	0	0	
8	0	0	0	0	0	487	0	0	0	0	
9	0	0	0	0	0	487	0	0	0	0	
10	0	0	0	0	0	486	0	1	0	0	
11	0	0	0	0	0	485	0	0	0	0	
12	0	0	0	0	0	484	0	0	0	0	
13	0	0	0	0	4	482	0	0	0	0	
14	0	0	0	0	0	480	0	0	0	0	
15	0	0	0	0	0	479	0	0	0	0	
0	0	0	0	0	0	477	0	0	0	0	
1	0	0	0	0	0	475	0	0	0	0	
2	0	0	0	0	0	474	0	1	0	0	
3	0	0	0	0	0	474	0	0	0	0	
4	0	0	0	0	0	474	0	0	0	0	
5	0	0	0	0	4	473	0	0	0	0	
6	0	0	0	0	0	473	0	0	0	0	
7	0	0	0	0	0	474	0	0	0	0	
8	0	0	0	0	0	475	0	0	0	0	
9	0	0	0	0	0	476	0	0	0	0	
10	0	0	0	0	0	478	0	1	0	0	
11	0	0	0	0	0	480	0	0	0	0	
12	0	0	0	0	0	482	0	0	0	0	
13	0	0	0	0	4	486	0	0	0	0	
14	0	0	0	0	0	488	0	0	0	0	
15	0	0	0	0	0	489	0	0	0	0	
0	0	0	0	0	0	490	0	0	0	0	
1	0	0	0	0	0	491	0	0	0	0	
2	0	0	0	0	0	491	0	1	0	0	
3	0	0	0	0	0	492	0	0	0	0	
4	0	0	0	0	0	494	0	0	0	0	
5	0	0	0	0	4	496	0	0	0	0	
6	0	0	0	0	0	496	0	0	0	0	
7	0	0	0	0	0	495	0	0	0	0	
8	0	0	0	0	0	494	0	0	0	0	
9	0	0	0	0	0	494	0	0	0	0	
10	0	0	0	0	0	494	0	1	0	0	
11	0	0	0	0	0	494	0	0	0	0	
12	0	0	0	0	0	494	0	0	0	0	
13	0	0	0	0	4	493	0	0	0	0	
14	0	0	0	0	0	494	0	0	0	0	
15	0	0	0	0	0	494	0	0	0	0	
0	0	0	0	0	0	495	0	0	0	0	
1	0	0	0	0	0	496	0	0	0	0	
2	0	0	0	0	0	499	0	1	0	0	
3	0	0	0	0	0	501	0	0	0	0	
4	0	0	0	0	0	504	0	0	0	0	
5	0	0	0	0	4	505	0	0	0	0	
6	0	0	0	0	0	506	0	0	0	0	
7	0	0	0	0	0	508	0	0	0	0	
8	0	0	0	0	0	508	0	0	0	0	
9	0	0	0	0	0	508	0	0	0	0	
10	0	0	0	0	0	508	0	1	0	0	
11	0	0	0	0	0	508	0	0	0	0	
12	0	0	0	0	0	508	0	0	0	0	
13	0	0	0	0	4	505	0	0	0	0	
14	0	0	0	0	0	503	0	0	0	0	
15	0	0	0	0	0	500	0	0	0	0	
0	0	0	0	0	0	496	0	0	0	0	
1	0	0	0	0	0	493	0	0	0	0	
2	0	0	0	0	0	490	0	1	0	0	
3	0	0	0	0	0	486	0	0	0	0	
4	0	0	0	0	0	483	0	0	0	0	
5	0	0	0	0	4	481	0	0	0	0	
6	0	0	0	0	0	479	0	0	0	0	
7	0	0	0	0	0	479	0	0	0	0	
8	0	0	0	0	0	478	0	0	0	0	
9	0	0	0	0	0	477	0	0	0	0	
10	0	0	0	0	0	476	0	1	0	0	
11	0	0	0	0	0	474	0	0	0	0	
12	0	0	0	0	0	474	0	0	0	0	
13	0	0	0	0	4	474	0	0	0	0	
14	0	0	0	0	0	474	0	0	0	0	
15	0	0	0	0	0	476	0	0	0	0	
0	0	0	0	0	0	476	0	0	0	0	
1	0	0	0	0	0	478	0	0	0	0	
2	0	0	0	0	0	481	0	1	0	0	
3	0	0	0	0	0	483	0	0	0	0	
4	0	0	0	0	0	485	0	0	0	0	
5	0	0	0	0	1	487	0	0	0	0	
6	0	0	0	0	0	488	0	0	0	0	
7	0	0	0	0	0	489	0	0	0	0	
8	0	0	0	0	0	489	0	0	0	0	
9	0	0	0	0	0	490	0	0	0	0	
10	0	0	0	0	0	491	0	1	0	0	
11	0	0	0	0	0	492	0	0	0	0	
12	0	0	0	0	0	494	0	0	0	0	
13	0	0	0	0	1	494	0	0	0	0	
14	0	0	0	0	0	495	0	0	0	0	
15	0	0	0	0	0	493	0	0	0	0	
0	0	0	0	0	0	492	0	0	0	0	
1	0	0	0	0	0	492	0	0	0	0	
2	0	0	0	0	0	492	0	1	0	0	
3	0	0	0	0	0	491	0	0	0	0	
4	0	0	0	0	0	491	0	0	0	0	
5	0	0	0	0	1	491	0	0	0	0	
6	0	0	0	0	0	488	0	0	0	0	
7	0	0	0	0	0	485	0	0	0	0	
8	0	0	0	0	0	483	0	0	0	0	
9	0	0	0	0	0	484	0	0	0	0	
10	0	0	0	0	0	484	0	1	0	0	
11	0	0	0	0	0	485	0	0	0	0	
12	0	0	0	0	0	487	0	0	0	0	
13	0	0	0	0	4	489	0	0	0	0	
14	0	0	0	0	0	491	0	0	0	0	
15	0	0	0	0	0	492	0	0	0	0	
0	0	0	0	0	0	493	0	0	0	0	
1	0	0	0	0	0	494	0	0	0	0	
2	0	0	0	0	0	494	0	1	0	0	
3	0	0	0	0	0	497	0	0	0	0	
4	0	0	0	0	0	499	0	0	0	0	
5	0	0	0	0	4	500	0	0	0	0	
6	0	0	0	0	0	502	0	0	0	0	
7	0	0	0	0	0	504	0	0	0	0	
8	0	0	0	0	0	505	0	0	0	0	
9	0	0	0	0	0	506	0	0	0	0	
10	0	0	0	0	0	506	0	1	0	0	
11	0	0	0	0	0	504	0	0	0	0	
12	0	0	0	0	0	501	0	0	0	0	
13	0	0	0	0	4	498	0	0	0	0	
14	0	0	0	0	0	494	0	0	0	0	
15	0	0	0	0	0	493	0	0	0	0	
0	0	0	0	0	0	492	0	0	0	0	
1	0	0	0	0	0	492	0	0	0	0	
2	0	0	0	0	0	489	0	1	0	0	
3	0	0	0	0	0	487	0	0	0	0	
4	0	0	0	0	0	483	0	0	0	0	
5	0	0	0	0	4	479	0	0	0	0	
6	0	0	0	0	0	478	0	0	0	0	
7	0	0	0	0	0	476	0	0	0	0	
8	0	0	0	0	0	475	0	0	0	0	
9	0	0	0	0	0	475	0	0	0	0	
10	0	0	0	0	0	475	0	1	0	0	
11	0	0	0	0	0	474	0	0	0	0	
12	0	0	0	0	0	471	0	0	0	0	
13	0	0	0	0	4	467	0	0	0	0	
14	0	0	0	0	0	462	0	0	0	0	
15	0	0	0	0	0	457	0	0	0	0	
0	0	0	0	0	0	454	0	0	0	0	
1	0	0	0	0	0	448	0	0	0	0	
2	0	0	0	0	0	443	0	1	0	0	
3	0	0	0	0	0	440	0	0	0	0	
4	0	0	0	0	0	436	0	0	0	0	
5	0	0	0	0	4	433	0	0	0	0	
6	0	0	0	0	0	432	0	0	0	0	
7	0	0	0	0	0	432	0	0	0	0	
8	0	0	0	0	0	432	0	0	0	0	
9	0	0	0	0	0	434	0	0	0	0	
10	0	0	0	0	0	436	0	1	0	0	
11	0	0	0	0	0	438	0	0	0	0	
12	0	0	0	0	0	440	0	0	0	0	
13	0	0	0	0	4	440	0	0	0	0	
14	0	0	0	0	0	439	0	0	0	0	
15	0	0	0	0	0	434	0	0	0	0	
0	0	0	0	0	0	432	0	0	0	0	
1	0	0	0	0	0	430	0	0	0	0	
2	0	0	0	0	0	429	0	1	0	0	
3	0	0	0	0	0	426	0	0	0	0	
4	0	0	0	0	0	422	0	0	0	0	
5	0	0	0	0	4	420	0	0	0	0	
6	0	0	0	0	0	419	0	0	0	0	
7	0	0	0	0	0	418	0	0	0	0	
8	0	0	0	0	0	419	0	0	0	0	
9	0	0	0	0	0	419	0	0	0	0	
10	0	0	0	0	0	421	0	1	0	0	
11	0	0	0	0	0	423	0	0	0	0	
12	0	0	0	0	0	426	0	0	0	0	
13	0	0	0	0	4	426	0	0	0	0	
14	0	0	0	0	0	426	0	0	0	0	
15	0	0	0	0	0	426	0	0	0	0	
0	0	0	0	0	0	426	0	0	0	0	
1	0	0	0	0	0	425	0	0	0	0	
2	0	0	0	0	0	422	0	1	0	0	
3	0	0	0	0	0	417	0	0	0	0	
4	0	0	0	0	0	412	0	0	0	0	
5	0	0	0	0	4	405	0	0	0	0	
6	0	0	0	0	0	399	0	0	0	0	
7	0	0	0	0	0	395	0	0	0	0	
8	0	0	0	0	0	391	0	0	0	0	
9	0	0	0	0	0	391	0	0	0	0	
10	0	0	0	0	0	389	0	1	0	0	
11	0	0	0	0	0	388	0	0	0	0	
12	0	0	0	0	0	387	0	0	0	0	
13	0	0	0	0	4	387	0	0	0	0	
14	0	0	0	0	0	385	0	0	0	0	
15	0	0	0	0	0	384	0	0	0	0	
0	0	0	0	0	0	383	0	0	0	0	
1	0	0	0	0	0	384	0	0	0	0	
2	0	0	0	0	0	386	0	1	0	0	
3	0	0	0	0	0	389	0	0	0	0	
4	0	0	0	0	0	391	0	0	0	0	
5	0	0	0	0	2	393	0	0	0	0	
6	0	0	0	0	0	393	0	0	0	0	
7	0	0	0	0	0	391	0	0	0	0	
8	0	0	0	0	0	391	0	0	0	0	
9	0	0	0	0	0	391	0	0	0	0	
10	0	0	0	0	0	391	0	1	0	0	
11	0	0	0	0	0	391	0	0	0	0	
12	0	0	0	0	0	388	0	0	0	0	
13	0	0	0	0	2	386	0	0	0	0	
14	0	0	0	0	0	382	0	0	0	0	
15	0	0	0	0	0	379	0	0	0	0	
0	0	0	0	0	0	376	0	0	0	0	
1	0	0	0	0	0	372	0	0	0	0	
2	0	0	0	0	0	370	0	1	0	0	
3	0	0	0	0	0	369	0	0	0	0	
4	0	0	0	0	0	368	0	0	0	0	
5	0	0	0	0	4	369	0	0	0	0	
6	0	0	0	0	0	371	0	0	0	0	
7	0	0	0	0	0	375	0	0	0	0	
8	0	0	0	0	0	379	0	0	0	0	
9	0	0	0	0	0	382	0	0	0	0	
10	0	0	0	0	0	385	0	1	0	0	
11	0	0	0	0	0	388	0	0	0	0	
12	0	0	0	0	0	391	0	0	0	0	
13	0	0	0	0	4	392	0	0	0	0	
14	0	0	0	0	0	392	0	0	0	0	
15	0	0	0	0	0	391	0	0	0	0	
0	0	0	0	0	0	391	0	0	0	0	
1	0	0	0	0	0	388	0	0	0	0	
2	0	0	0	0	0	384	0	1	0	0	
3	0	0	0	0	0	380	0	0	0	0	
4	0	0	0	0	0	376	0	0	0	0	
5	0	0	0	0	4	375	0	0	0	0	
6	0	0	0	0	0	374	0	0	0	0	
7	0	0	0	0	0	376	0	0	0	0	
8	0	0	0	0	0	376	0	0	0	0	
9	0	0	0	0	0	376	0	0	0	0	
10	0	0	0	0	0	373	0	1	0	0	
11	0	0	0	0	0	370	0	0	0	0	
12	0	0	0	0	0	368	0	0	0	0	
13	0	0	0	0	4	368	0	0	0	0	
14	0	0	0	0	0	368	0	0	0	0	
15	0	0	0	0	0	369	0	0	0	0	
0	0	0	0	0	0	370	0	0	0	0	
1	0	0	0	0	0	371	0	0	0	0	
2	0	0	0	0	0	372	0	1	0	0	
3	0	0	0	0	0	376	0	0	0	0	
4	0	0	0	0	0	381	0	0	0	0	
5	0	0	0	0	4	387	0	0	0	0	
6	0	0	0	0	0	391	0	0	0	0	
7	0	0	0	0	0	395	0	0	0	0	
8	0	0	0	0	0	398	0	0	0	0	
9	0	0	0	0	0	399	0	0	0	0	
10	0	0	0	0	0	400	0	1	0	0	
11	0	0	0	0	0	398	0	0	0	0	
12	0	0	0	0	0	395	0	0	0	0	
13	0	0	0	0	4	391	0	0	0	0	
14	0	0	0	0	0	388	0	0	0	0	
15	0	0	0	0	0	386	0	0	0	0	
0	0	0	0	0	0	385	0	0	0	0	
1	0	0	0	0	0	384	0	0	0	0	
2	0	0	0	0	0	383	0	1	0	0	
3	0	0	0	0	0	381	0	0	0	0	
4	0	0	0	0	0	380	0	0	0	0	
5	0	0	0	0	4	381	0	0	0	0	
6	0	0	0	0	0	384	0	0	0	0	
7	0	0	0	0	0	387	0	0	0	0	
8	0	0	0	0	0	390	0	0	0	0	
9	0	0	0	0	0	392	0	0	0	0	
10	0	0	0	0	0	396	0	1	0	0	
11	0	0	0	0	0	398	0	0	0	0	
12	0	0	0	0	0	399	0	0	0	0	
13	0	0	0	0	4	401	0	0	0	0	
14	0	0	0	0	0	404	0	0	0	0	
15	0	0	0	0	0	406	0	0	0	0	
0	0	0	0	0	0	406	0	0	0	0	
1	0	0	0	0	0	405	0	0	0	0	
2	0	0	0	0	0	406	0	1	0	0	
3	0	0	0	0	0	409	0	0	0	0	
4	0	0	0	0	0	412	0	0	0	0	
5	0	0	0	0	4	416	0	0	0	0	
6	0	0	0	0	0	422	0	0	0	0	
7	0	0	0	0	0	431	0	0	0	0	
8	0	0	0	0	0	440	0	0	0	0	
9	0	0	0	0	0	452	0	0	0	0	
10	0	0	0	0	0	466	0	1	0	0	
11	0	0	0	0	0	479	0	0	0	0	
12	0	0	0	0	0	491	0	0	0	0	
13	0	0	0	0	4	504	0	0	0	0	
14	0	0	0	0	0	518	0	0	0	0	
15	0	0	0	0	0	534	0	0	0	0	
0	0	0	0	0	0	549	0	0	0	0	
1	0	0	0	0	0	565	0	0	0	0	
2	0	0	0	0	0	582	0	1	0	0	
3	0	0	0	0	0	600	1	0	0	0	
4	0	0	0	0	0	622	0	0	0	0	
5	0	0	0	0	4	649	1	0	0	0	
6	0	0	0	0	0	679	1	0	0	0	
7	0	0	0	0	0	710	1	0	0	0	
8	0	0	0	0	0	740	1	0	0	0	
9	0	0	0	0	0	771	1	0	0	0	
10	0	0	0	0	0	798	1	1	0	0	
11	0	0	0	0	0	823	2	0	0	0	
12	0	0	0	0	0	845	2	0	0	0	
13	0	0	0	0	1	862	2	0	0	0	
14	0	0	0	0	0	879	2	0	0	0	
15	0	0	0	0	0	894	2	0	0	0	
0	0	0	0	0	0	908	2	0	0	0	
1	0	0	0	0	0	918	2	0	0	0	
2	0	0	0	0	0	922	2	1	0	0	
3	0	0	0	0	0	918	2	0	0	0	
4	0	0	0	0	0	904	2	0	0	0	
5	0	0	0	0	1	886	2	0	0	0	
6	0	0	0	0	0	860	2	0	0	0	
7	0	0	0	0	0	827	1	0	0	0	
8	0	0	0	0	0	784	1	0	0	0	
9	0	0	0	0	0	735	1	0	0	0	
10	0	0	0	0	0	685	1	1	0	0	
11	0	0	0	0	0	639	1	0	0	0	
12	0	0	0	0	0	597	0	0	0	0	
13	0	0	0	0	1	561	0	0	0	0	
14	0	0	0	0	0	529	0	0	0	0	
15	0	0	0	0	0	500	0	0	0	0	
0	0	0	0	0	0	477	0	0	0	0	
1	0	0	0	0	0	455	0	0	0	0	
2	0	0	0	0	0	435	0	1	0	0	
3	0	0	0	0	0	417	0	0	0	0	
4	0	0	0	0	0	400	0	0	0	0	
5	0	0	0	0	4	383	0	0	0	0	
6	0	0	0	0	0	369	0	0	0	0	
7	0	0	0	0	0	355	0	0	0	0	
8	0	0	0	0	0	340	0	0	0	0	
9	0	0	0	0	0	328	0	0	0	0	
10	0	0	0	0	0	316	0	1	0	0	
11	0	0	0	0	0	304	0	0	0	0	
12	0	0	0	0	0	292	0	0	0	0	
13	0	0	0	0	4	283	0	0	0	0	
14	0	0	0	0	0	277	0	0	0	0	
15	0	0	0	0	0	275	0	0	0	0	
0	0	0	0	0	0	273	0	0	0	0	
1	0	0	0	0	0	277	0	0	0	0	
2	0	0	0	0	0	284	0	1	0	0	
3	0	0	0	0	0	295	0	0	0	0	
4	0	0	0	0	0	311	0	0	0	0	
5	0	0	0	0	4	327	0	0	0	0	
6	0	0	0	0	0	343	0	0	0	0	
7	0	0	0	0	0	359	0	0	0	0	
8	0	0	0	0	0	374	0	0	0	0	
9	0	0	0	0	0	388	0	0	0	0	
10	0	0	0	0	0	403	0	1	0	0	
11	0	0	0	0	0	418	0	0	0	0	
12	0	0	0	0	0	432	0	0	0	0	
13	0	0	0	0	4	446	0	0	0	0	
14	0	0	0	0	0	458	0	0	0	0	
15	0	0	0	0	0	467	0	0	0	0	
0	0	0	0	0	0	476	0	0	0	0	
1	0	0	0	0	0	485	0	0	0	0	
2	0	0	0	0	0	494	0	1	0	0	
3	0	0	0	0	0	499	0	0	0	0	
4	0	0	0	0	0	504	0	0	0	0	
5	0	0	0	0	4	508	0	0	0	0	
6	0	0	0	0	0	510	0	0	0	0	
7	0	0	0	0	0	514	0	0	0	0	
8	0	0	0	0	0	519	0	0	0	0	
9	0	0	0	0	0	524	0	0	0	0	
10	0	0	0	0	0	529	0	1	0	0	
11	0	0	0	0	0	534	1	0	0	0	
12	0	0	0	0	0	535	0	0	0	0	
13	0	0	0	0	4	532	0	0	0	0	
14	0	0	0	0	0	529	0	0	0	0	
15	0	0	0	0	0	526	0	0	0	0	
0	0	0	0	0	0	523	0	0	0	0	
1	0	0	0	0	0	519	0	0	0	0	
2	0	0	0	0	0	515	0	1	0	0	
3	0	0	0	0	0	511	0	0	0	0	
4	0	0	0	0	0	504	0	0	0	0	
5	0	0	0	0	4	496	0	0	0	0	
6	0	0	0	0	0	490	0	0	0	0	
7	0	0	0	0	0	484	0	0	0	0	
8	0	0	0	0	0	477	0	0	0	0	
9	0	0	0	0	0	473	0	0	0	0	
10	0	0	0	0	0	470	0	1	0	0	
11	0	0	0	0	0	469	0	0	0	0	
12	0	0	0	0	0	471	0	0	0	0	
13	0	0	0	0	4	473	0	0	0	0	
14	0	0	0	0	0	476	0	0	0	0	
15	0	0	0	0	0	480	0	0	0	0	
0	0	0	0	0	0	482	0	0	0	0	
1	0	0	0	0	0	484	0	0	0	0	
2	0	0	0	0	0	488	0	1	0	0	
3	0	0	0	0	0	496	0	0	0	0	
4	0	0	0	0	0	505	0	0	0	0	
5	0	0	0	0	4	515	0	0	0	0	
6	0	0	0	0	0	526	0	0	0	0	
7	0	0	0	0	0	536	0	0	0	0	
8	0	0	0	0	0	550	0	0	0	0	
9	0	0	0	0	0	563	0	0	0	0	
10	0	0	0	0	0	576	0	1	0	0	
11	0	0	0	0	0	585	1	0	0	0	
12	0	0	0	0	1	592	0	0	0	0	
13	0	0	0	0	4	599	0	0	0	0	
14	0	0	0	0	0	605	0	0	0	0	
15	0	0	0	0	0	609	0	0	0	0	
0	0	0	0	0	0	613	0	0	0	0	
1	0	0	0	0	0	615	0	0	0	0	
2	0	0	0	0	0	616	0	1	0	0	
3	0	0	0	0	0	613	1	0	0	0	
4	0	0	0	0	0	612	0	0	0	0	
5	0	0	0	0	4	612	0	0	0	0	
6	0	0	0	0	0	612	0	0	0	0	
7	0	0	0	0	0	612	0	0	0	0	
8	0	0	0	0	0	611	0	0	0	0	
9	0	0	0	0	0	609	0	0	0	0	
10	0	0	0	0	0	606	0	1	0	0	
11	0	0	0	0	0	602	1	0	0	0	
12	0	0	0	0	0	598	0	0	0	0	
13	0	0	0	0	2	592	0	0	0	0	
14	0	0	0	0	0	588	0	0	0	0	
15	0	0	0	0	0	584	0	0	0	0	
0	0	0	0	0	0	580	0	0	0	0	
1	0	0	0	0	0	576	0	0	0	0	
2	0	0	0	0	0	572	0	1	0	0	
3	0	0	0	0	0	569	0	0	0	0	
4	0	0	0	0	0	568	0	0	0	0	
5	0	0	0	0	2	568	0	0	0	0	
6	0	0	0	0	0	565	0	0	0	0	
7	0	0	0	0	0	561	0	0	0	0	
8	0	0	0	0	0	558	0	0	0	0	
9	0	0	0	0	0	555	0	0	0	0	
10	0	0	0	0	0	550	0	1	0	0	
11	0	0	0	0	0	545	0	0	0	0	
12	0	0	0	0	0	541	0	0	0	0	
13	0	0	0	0	2	537	0	0	0	0	
14	0	0	0	0	0	536	0	0	0	0	
15	0	0	0	0	0	537	0	0	0	0	
0	0	0	0	0	0	539	0	0	0	0	
1	0	0	0	0	0	540	0	0	0	0	
2	0	0	0	0	0	542	0	1	0	0	
3	0	0	0	0	0	541	1	0	0	0	
4	0	0	0	0	0	542	0	0	0	0	
5	0	0	0	0	4	543	0	0	0	0	
6	0	0	0	0	0	546	0	0	0	0	
7	0	0	0	0	0	550	0	0	0	0	
8	0	0	0	0	0	555	0	0	0	0	
9	0	0	0	0	0	560	0	0	0	0	
10	0	0	0	0	0	567	0	1	0	0	
11	0	0	0	0	0	574	1	0	0	0	
12	0	0	0	0	0	582	0	0	0	0	
13	0	0	0	0	4	590	0	0	0	0	
14	0	0	0	0	0	599	0	0	0	0	
15	0	0	0	0	0	608	0	0	0	0	
0	0	0	0	0	0	614	0	0	0	0	
1	0	0	0	0	0	620	0	0	0	0	
2	0	0	0	0	0	626	1	1	0	0	
3	0	0	0	0	0	628	1	0	0	0	
4	0	0	0	0	0	631	1	0	0	0	
5	0	0	0	0	4	632	1	0	0	0	
6	0	0	0	0	0	632	0	0	0	0	
7	0	0	0	0	0	631	0	0	0	0	
8	0	0	0	0	0	631	1	0	0	0	
9	0	0	0	0	0	630	0	0	0	0	
10	0	0	0	0	0	630	0	1	0	0	
11	0	0	0	0	0	631	1	0	0	0	
12	0	0	0	0	0	631	1	0	0	0	
13	0	0	0	0	4	630	1	0	0	0	
14	0	0	0	0	0	630	0	0	0	0	
15	0	0	0	0	0	629	0	0	0	0	
0	0	0	0	0	0	628	1	0	0	0	
1	0	0	0	0	0	626	0	0	0	0	
2	0	0	0	0	0	623	1	1	0	0	
3	0	0	0	0	0	619	1	0	0	0	
4	0	0	0	0	0	617	0	0	0	0	
5	0	0	0	0	4	615	0	0	0	0	
6	0	0	0	0	0	612	0	0	0	0	
7	0	0	0	0	0	608	0	0	0	0	
8	0	0	0	0	0	605	0	0	0	0	
9	0	0	0	0	0	603	0	0	0	0	
10	0	0	0	0	0	601	0	1	0	0	
11	0	0	0	0	0	601	1	0	0	0	
12	0	0	0	0	0	601	0	0	0	0	
13	0	0	0	0	4	601	0	0	0	0	
14	0	0	0	0	0	603	0	0	0	0	
15	0	0	0	0	0	604	0	0	0	0	
0	0	0	0	0	0	606	0	0	0	0	
1	0	0	0	0	0	607	0	0	0	0	
2	0	0	0	0	0	608	0	1	0	0	
3	0	0	0	0	0	610	1	0	0	0	
4	0	0	0	0	0	613	0	0	0	0	
5	0	0	0	0	4	618	0	0	0	0	
6	0	0	0	0	0	622	0	0	0	0	
7	0	0	0	0	0	624	0	0	0	0	
8	0	0	0	0	0	626	0	0	0	0	
9	0	0	0	0	0	630	0	0	0	0	
10	0	0	0	0	0	633	0	1	0	0	
11	0	0	0	0	0	636	1	0	0	0	
12	0	0	0	0	0	637	1	0	0	0	
13	0	0	0	0	4	636	1	0	0	0	
14	0	0	0	0	0	636	1	0	0	0	
15	0	0	0	0	0	638	0	0	0	0	
0	0	0	0	0	0	641	1	0	0	0	
1	0	0	0	0	0	645	1	0	0	0	
2	0	0	0	0	0	648	1	1	0	0	
3	0	0	0	0	0	651	1	0	0	0	
4	0	0	0	0	0	652	1	0	0	0	
5	0	0	0	0	4	654	1	0	0	0	
6	0	0	0	0	0	655	1	0	0	0	
7	0	0	0	0	0	655	0	0	0	0	
8	0	0	0	0	0	655	1	0	0	0	
9	0	0	0	0	0	654	0	0	0	0	
10	0	0	0	0	0	654	1	1	0	0	
11	0	0	0	0	0	652	1	0	0	0	
12	0	0	0	0	0	650	1	0	0	0	
13	0	0	0	0	4	647	1	0	0	0	
14	0	0	0	0	0	644	1	0	0	0	
15	0	0	0	0	0	638	0	0	0	0	
0	0	0	0	0	0	631	0	0	0	0	
1	0	0	0	0	0	625	0	0	0	0	
2	0	0	0	0	0	623	0	1	0	0	
3	0	0	0	0	0	620	1	0	0	0	
4	0	0	0	0	1	617	0	0	0	0	
5	0	0	0	0	4	616	0	0	0	0	
6	0	0	0	0	0	614	0	0	0	0	
7	0	0	0	0	0	613	0	0	0	0	
8	0	0	0	0	0	612	0	0	0	0	
9	0	0	0	0	0	611	0	0	0	0	
10	0	0	0	0	0	611	0	1	0	0	
11	0	0	0	0	0	609	1	0	0	0	
12	0	0	0	0	0	607	0	0	0	0	
13	0	0	0	0	1	604	0	0	0	0	
14	0	0	0	0	0	603	0	0	0	0	
15	0	0	0	0	0	602	0	0	0	0	
0	0	0	0	0	0	601	0	0	0	0	
1	0	0	0	0	0	600	0	0	0	0	
2	0	0	0	0	0	599	0	1	0	0	
3	0	0	0	0	0	599	1	0	0	0	
4	0	0	0	0	0	599	0	0	0	0	
5	0	0	0	0	1	598	0	0	0	0	
6	0	0	0	0	0	595	0	0	0	0	
7	0	0	0	0	0	590	0	0	0	0	
8	0	0	0	0	0	585	0	0	0	0	
9	0	0	0	0	0	579	0	0	0	0	
10	0	0	0	0	0	573	0	1	0	0	
11	0	0	0	0	0	566	0	0	0	0	
12	0	0	0	0	0	559	0	0	0	0	
13	0	0	0	0	4	551	0	0	0	0	
14	0	0	0	0	0	544	0	0	0	0	
15	0	0	0	0	0	539	0	0	0	0	
0	0	0	0	0	0	535	0	0	0	0	
1	0	0	0	0	0	531	0	0	0	0	
2	0	0	0	0	0	527	0	1	0	0	
3	0	0	0	0	0	522	0	0	0	0	
4	0	0	0	0	0	519	0	0	0	0	
5	0	0	0	0	4	517	0	0	0	0	
6	0	0	0	0	0	514	0	0	0	0	
7	0	0	0	0	0	511	0	0	0	0	
8	0	0	0	0	0	508	0	0	0	0	
9	0	0	0	0	0	504	0	0	0	0	
10	0	0	0	0	0	500	0	1	0	0	
11	0	0	0	0	0	495	0	0	0	0	
12	0	0	0	0	1	490	0	0	0	0	
13	0	0	0	0	4	486	0	0	0	0	
14	0	0	0	0	0	483	0	0	0	0	
15	0	0	0	0	0	483	0	0	0	0	
0	0	0	0	0	0	483	0	0	0	0	
1	0	0	0	0	0	484	0	0	0	0	
2	0	0	0	0	0	485	0	1	0	0	
3	0	0	0	0	0	486	0	0	0	0	
4	0	0	0	0	0	487	0	0	0	0	
5	0	0	0	0	4	486	0	0	0	0	
6	0	0	0	0	0	484	0	0	0	0	
7	0	0	0	0	0	484	0	0	0	0	
8	0	0	0	0	0	484	0	0	0	0	
9	0	0	0	0	0	484	0	0	0	0	
10	0	0	0	0	0	483	0	1	0	0	
11	0	0	0	0	0	480	0	0	0	0	
12	0	0	0	0	0	477	0	0	0	0	
13	0	0	0	0	4	473	0	0	0	0	
14	0	0	0	0	0	470	0	0	0	0	
15	0	0	0	0	0	466	0	0	0	0	
0	0	0	0	0	0	460	0	0	0	0	
1	0	0	0	0	0	450	0	0	0	0	
2	0	0	0	0	0	443	0	1	0	0	
3	0	0	0	0	0	438	0	0	0	0	
4	0	0	0	0	0	434	0	0	0	0	
5	0	0	0	0	4	430	0	0	0	0	
6	0	0	0	0	0	427	0	0	0	0	
7	0	0	0	0	0	425	0	0	0	0	
8	0	0	0	0	0	423	0	0	0	0	
9	0	0	0	0	0	422	0	0	0	0	
10	0	0	0	0	0	420	0	1	0	0	
11	0	0	0	0	0	419	0	0	0	0	
12	0	0	0	0	0	417	0	0	0	0	
13	0	0	0	0	4	416	0	0	0	0	
14	0	0	0	0	0	412	0	0	0	0	
15	0	0	0	0	0	409	0	0	0	0	
0	0	0	0	0	0	407	0	0	0	0	
1	0	0	0	0	0	406	0	0	0	0	
2	0	0	0	0	0	405	0	1	0	0	
3	0	0	0	0	0	405	0	0	0	0	
4	0	0	0	0	0	406	0	0	0	0	
5	0	0	0	0	4	407	0	0	0	0	
6	0	0	0	0	0	408	0	0	0	0	
7	0	0	0	0	0	410	0	0	0	0	
8	0	0	0	0	0	412	0	0	0	0	
9	0	0	0	0	0	412	0	0	0	0	
10	0	0	0	0	0	414	0	1	0	0	
11	0	0	0	0	0	416	0	0	0	0	
12	0	0	0	0	0	416	0	0	0	0	
13	0	0	0	0	4	415	0	0	0	0	
14	0	0	0	0	0	414	0	0	0	0	
15	0	0	0	0	0	412	0	0	0	0	
0	0	0	0	0	0	409	0	0	0	0	
1	0	0	0	0	0	406	0	0	0	0	
2	0	0	0	0	0	405	0	1	0	0	
3	0	0	0	0	0	403	0	0	0	0	
4	0	0	0	0	0	401	0	0	0	0	
5	0	0	0	0	4	398	0	0	0	0	
6	0	0	0	0	0	395	0	0	0	0	
7	0	0	0	0	0	391	0	0	0	0	
8	0	0	0	0	0	388	0	0	0	0	
9	0	0	0	0	0	387	0	0	0	0	
10	0	0	0	0	0	384	0	1	0	0	
11	0	0	0	0	0	382	0	0	0	0	
12	0	0	0	0	0	380	0	0	0	0	
13	0	0	0	0	4	379	0	0	0	0	
14	0	0	0	0	0	376	0	0	0	0	
15	0	0	0	0	0	375	0	0	0	0	
0	0	0	0	0	0	375	0	0	0	0	
1	0	0	0	0	0	375	0	0	0	0	
2	0	0	0	0	0	374	0	1	0	0	
3	0	0	0	0	0	375	0	0	0	0	
4	0	0	0	0	0	376	0	0	0	0	
5	0	0	0	0	2	379	0	0	0	0	
6	0	0	0	0	0	380	0	0	0	0	
7	0	0	0	0	0	381	0	0	0	0	
8	0	0	0	0	0	382	0	0	0	0	
9	0	0	0	0	0	381	0	0	0	0	
10	0	0	0	0	0	381	0	1	0	0	
11	0	0	0	0	0	381	0	0	0	0	
12	0	0	0	0	0	383	0	0	0	0	
13	0	0	0	0	2	384	0	0	0	0	
14	0	0	0	0	0	384	0	0	0	0	
15	0	0	0	0	0	387	0	0	0	0	
0	0	0	0	0	0	390	0	0	0	0	
1	0	0	0	0	0	393	0	0	0	0	
2	0	0	0	0	0	398	0	1	0	0	
3	0	0	0	0	0	402	0	0	0	0	
4	0	0	0	0	0	404	0	0	0	0	
5	0	0	0	0	2	406	0	0	0	0	
6	0	0	0	0	0	408	0	0	0	0	
7	0	0	0	0	0	411	0	0	0	0	
8	0	0	0	0	0	415	0	0	0	0	
9	0	0	0	0	0	420	0	0	0	0	
10	0	0	0	0	0	425	0	1	0	0	
11	0	0	0	0	0	430	0	0	0	0	
12	0	0	0	0	0	436	0	0	0	0	
13	0	0	0	0	4	442	0	0	0	0	
14	0	0	0	0	0	448	0	0	0	0	
15	0	0	0	0	0	451	0	0	0	0	
0	0	0	0	0	0	458	0	0	0	0	
1	0	0	0	0	0	466	0	0	0	0	
2	0	0	0	0	0	472	0	1	0	0	
3	0	0	0	0	0	476	0	0	0	0	
4	0	0	0	0	0	479	0	0	0	0	
5	0	0	0	0	4	482	0	0	0	0	
6	0	0	0	0	0	487	0	0	0	0	
7	0	0	0	0	0	492	0	0	0	0	
8	0	0	0	0	0	497	0	0	0	0	
9	0	0	0	0	0	500	0	0	0	0	
10	0	0	0	0	0	503	0	1	0	0	
11	0	0	0	0	0	507	0	0	0	0	
12	0	0	0	0	1	510	0	0	0	0	
13	0	0	0	0	4	511	0	0	0	0	
14	0	0	0	0	0	511	0	0	0	0	
15	0	0	0	0	0	512	0	0	0	0	
0	0	0	0	0	0	513	0	0	0	0	
1	0	0	0	0	0	515	0	0	0	0	
2	0	0	0	0	0	518	0	1	0	0	
3	0	0	0	0	0	522	0	0	0	0	
4	0	0	0	0	0	524	0	0	0	0	
5	0	0	0	0	4	525	0	0	0	0	
6	0	0	0	0	0	525	0	0	0	0	
7	0	0	0	0	0	524	0	0	0	0	
8	0	0	0	0	0	523	0	0	0	0	
9	0	0	0	0	0	523	0	0	0	0	
10	0	0	0	0	0	522	0	1	0	0	
11	0	0	0	0	0	521	1	0	0	0	
12	0	0	0	0	0	519	0	0	0	0	
13	0	0	0	0	4	518	0	0	0	0	
14	0	0	0	0	0	516	0	0	0	0	
15	0	0	0	0	0	516	0	0	0	0	
0	0	0	0	0	0	516	0	0	0	0	
1	0	0	0	0	0	518	0	0	0	0	
2	0	0	0	0	0	518	0	1	0	0	
3	0	0	0	0	0	518	1	0	0	0	
4	0	0	0	0	0	518	0	0	0	0	
5	0	0	0	0	4	519	0	0	0	0	
6	0	0	0	0	0	519	0	0	0	0	
7	0	0	0	0	0	521	0	0	0	0	
8	0	0	0	0	0	521	0	0	0	0	
9	0	0	0	0	0	521	0	0	0	0	
10	0	0	0	0	0	522	0	1	0	0	
11	0	0	0	0	0	523	0	0	0	0	
12	0	0	0	0	0	524	0	0	0	0	
13	0	0	0	0	4	522	0	0	0	0	
14	0	0	0	0	0	519	0	0	0	0	
15	0	0	0	0	0	517	0	0	0	0	
0	0	0	0	0	0	515	0	0	0	0	
1	0	0	0	0	0	514	0	0	0	0	
2	0	0	0	0	0	514	0	1	0	0	
3	0	0	0	0	0	516	0	0	0	0	
4	0	0	0	0	0	518	0	0	0	0	
5	0	0	0	0	4	519	0	0	0	0	
6	0	0	0	0	0	520	0	0	0	0	
7	0	0	0	0	0	521	0	0	0	0	
8	0	0	0	0	0	522	0	0	0	0	
9	0	0	0	0	0	523	0	0	0	0	
10	0	0	0	0	0	524	0	1	0	0	
11	0	0	0	0	0	524	1	0	0	0	
12	0	0	0	0	0	523	0	0	0	0	
13	0	0	0	0	4	523	0	0	0	0	
14	0	0	0	0	0	523	0	0	0	0	
15	0	0	0	0	0	522	0	0	0	0	
0	0	0	0	0	0	520	0	0	0	0	
1	0	0	0	0	0	518	0	0	0	0	
2	0	0	0	0	0	518	0	1	0	0	
3	0	0	0	0	0	518	0	0	0	0	
4	0	0	0	0	0	519	0	0	0	0	
5	0	0	0	0	4	519	0	0	0	0	
6	0	0	0	0	0	519	0	0	0	0	
7	0	0	0	0	0	518	0	0	0	0	
8	0	0	0	0	0	518	0	0	0	0	
9	0	0	0	0	0	518	0	0	0	0	
10	0	0	0	0	0	515	0	1	0	0	
11	0	0	0	0	0	513	0	0	0	0	
12	0	0	0	0	0	512	0	0	0	0	
13	0	0	0	0	4	510	0	0	0	0	
14	0	0	0	0	0	507	0	0	0	0	
15	0	0	0	0	0	506	0	0	0	0	
0	0	0	0	0	0	507	0	0	0	0	
1	0	0	0	0	0	510	0	0	0	0	
2	0	0	0	0	0	510	0	1	0	0	
3	0	0	0	0	0	511	0	0	0	0	
4	0	0	0	0	0	513	0	0	0	0	
5	0	0	0	0	1	514	0	0	0	0	
6	0	0	0	0	0	515	0	0	0	0	
7	0	0	0	0	0	515	0	0	0	0	
8	0	0	0	0	0	515	0	0	0	0	
9	0	0	0	0	0	514	0	0	0	0	
10	0	0	0	0	0	514	0	1	0	0	
11	0	0	0	0	0	513	0	0	0	0	
12	0	0	0	0	0	512	0	0	0	0	
13	0	0	0	0	1	512	0	0	0	0	
14	0	0	0	0	0	511	0	0	0	0	
15	0	0	0	0	0	509	0	0	0	0	
0	0	0	0	0	0	508	0	0	0	0	
1	0	0	0	0	0	507	0	0	0	0	
2	0	0	0	0	0	505	0	1	0	0	
3	0	0	0	0	0	504	0	0	0	0	
4	0	0	0	0	0	504	0	0	0	0	
5	0	0	0	0	1	504	0	0	0	0	
6	0	0	0	0	0	504	0	0	0	0	
7	0	0	0	0	0	504	0	0	0	0	
8	0	0	0	0	0	504	0	0	0	0	
9	0	0	0	0	0	502	0	0	0	0	
10	0	0	0	0	0	503	0	1	0	0	
11	0	0	0	0	0	503	0	0	0	0	
12	0	0	0	0	0	504	0	0	0	0	
13	0	0	0	0	4	503	0	0	0	0	
14	0	0	0	0	0	502	0	0	0	0	
15	0	0	0	0	0	500	0	0	0	0	
0	0	0	0	0	0	499	0	0	0	0	
1	0	0	0	0	0	499	0	0	0	0	
2	0	0	0	0	0	498	0	1	0	0	
3	0	0	0	0	0	498	0	0	0	0	
4	0	0	0	0	0	499	0	0	0	0	
5	0	0	0	0	4	498	0	0	0	0	
6	0	0	0	0	0	498	0	0	0	0	
7	0	0	0	0	0	496	0	0	0	0	
8	0	0	0	0	0	494	0	0	0	0	
9	0	0	0	0	0	493	0	0	0	0	
10	0	0	0	0	0	492	0	1	0	0	
11	0	0	0	0	0	492	0	0	0	0	
12	0	0	0	0	0	492	0	0	0	0	
13	0	0	0	0	4	493	0	0	0	0	
14	0	0	0	0	0	495	0	0	0	0	
15	0	0	0	0	0	496	0	0	0	0	
0	0	0	0	0	0	498	0	0	0	0	
1	0	0	0	0	0	497	0	0	0	0	
2	0	0	0	0	0	497	0	1	0	0	
3	0	0	0	0	0	498	0	0	0	0	
4	0	0	0	0	0	499	0	0	0	0	
5	0	0	0	0	4	497	0	0	0	0	
6	0	0	0	0	0	496	0	0	0	0	
7	0	0	0	0	0	496	0	0	0	0	
8	0	0	0	0	0	496	0	0	0	0	
9	0	0	0	0	0	496	0	0	0	0	
10	0	0	0	0	0	498	0	1	0	0	
11	0	0	0	0	0	500	0	0	0	0	
12	0	0	0	0	0	502	0	0	0	0	
13	0	0	0	0	4	502	0	0	0	0	
14	0	0	0	0	0	502	0	0	0	0	
15	0	0	0	0	0	501	0	0	0	0	
0	0	0	0	0	0	500	0	0	0	0	
1	0	0	0	0	0	500	0	0	0	0	
2	0	0	0	0	0	499	0	1	0	0	
3	0	0	0	0	0	496	0	0	0	0	
4	0	0	0	0	0	494	0	0	0	0	
5	0	0	0	0	4	493	0	0	0	0	
6	0	0	0	0	0	493	0	0	0	0	
7	0	0	0	0	0	495	0	0	0	0	
8	0	0	0	0	0	496	0	0	0	0	
9	0	0	0	0	0	497	0	0	0	0	
10	0	0	0	0	0	499	0	1	0	0	
11	0	0	0	0	0	501	0	0	0	0	
12	0	0	0	0	0	503	0	0	0	0	
13	0	0	0	0	4	504	0	0	0	0	
14	0	0	0	0	0	505	0	0	0	0	
15	0	0	0	0	0	504	0	0	0	0	
0	0	0	0	0	0	505	0	0	0	0	
1	0	0	0	0	0	505	0	0	0	0	
2	0	0	0	0	0	506	0	1	0	0	
3	0	0	0	0	0	507	0	0	0	0	
4	0	0	0	0	0	507	0	0	0	0	
5	0	0	0	0	4	506	0	0	0	0	
6	0	0	0	0	0	505	0	0	0	0	
7	0	0	0	0	0	505	0	0	0	0	
8	0	0	0	0	0	505	0	0	0	0	
9	0	0	0	0	0	504	0	0	0	0	
10	0	0	0	0	0	502	0	1	0	0	
11	0	0	0	0	0	501	0	0	0	0	
12	0	0	0	0	0	501	0	0	0	0	
13	0	0	0	0	4	502	0	0	0	0	
14	0	0	0	0	0	502	0	0	0	0	
15	0	0	0	0	0	501	0	0	0	0	
0	0	0	0	0	0	500	0	0	0	0	
1	0	0	0	0	0	499	0	0	0	0	
2	0	0	0	0	0	498	0	1	0	0	
3	0	0	0	0	0	497	0	0	0	0	
4	0	0	0	0	1	496	0	0	0	0	
5	0	0	0	0	4	496	0	0	0	0	
6	0	0	0	0	0	495	0	0	0	0	
7	0	0	0	0	0	494	0	0	0	0	
8	0	0	0	0	0	493	0	0	0	0	
9	0	0	0	0	0	492	0	0	0	0	
10	0	0	0	0	0	492	0	1	0	0	
11	0	0	0	0	0	492	0	0	0	0	
12	0	0	0	0	0	491	0	0	0	0	
13	0	0	0	0	4	491	0	0	0	0	
14	0	0	0	0	0	492	0	0	0	0	
15	0	0	0	0	0	494	0	0	0	0	
0	0	0	0	0	0	495	0	0	0	0	
1	0	0	0	0	0	495	0	0	0	0	
2	0	0	0	0	0	494	0	1	0	0	
3	0	0	0	0	0	494	0	0	0	0	
4	0	0	0	0	0	495	0	0	0	0	
5	0	0	0	0	2	496	0	0	0	0	
6	0	0	0	0	0	496	0	0	0	0	
7	0	0	0	0	0	494	0	0	0	0	
8	0	0	0	0	0	494	0	0	0	0	
9	0	0	0	0	0	494	0	0	0	0	
10	0	0	0	0	0	494	0	1	0	0	
11	0	0	0	0	0	495	0	0	0	0	
12	0	0	0	0	1	496	0	0	0	0	
13	0	0	0	0	2	496	0	0	0	0	
14	0	0	0	0	0	496	0	0	0	0	
15	0	0	0	0	0	494	0	0	0	0	
0	0	0	0	0	0	493	0	0	0	0	
1	0	0	0	0	0	494	0	0	0	0	
2	0	0	0	0	0	496	0	1	0	0	
3	0	0	0	0	0	497	0	0	0	0	
4	0	0	0	0	0	497	0	0	0	0	
5	0	0	0	0	4	496	0	0	0	0	
6	0	0	0	0	0	494	0	0	0	0	
7	0	0	0	0	0	491	0	0	0	0	
8	0	0	0	0	0	492	0	0	0	0	
9	0	0	0	0	0	494	0	0	0	0	
10	0	0	0	0	0	496	0	1	0	0	
11	0	0	0	0	0	499	0	0	0	0	
12	0	0	0	0	0	498	0	0	0	0	
13	0	0	0	0	4	497	0	0	0	0	
14	0	0	0	0	0	498	0	0	0	0	
15	0	0	0	0	0	500	0	0	0	0	
0	0	0	0	0	0	499	0	0	0	0	
1	0	0	0	0	0	500	0	0	0	0	
2	0	0	0	0	0	500	0	1	0	0	
3	0	0	0	0	0	501	0	0	0	0	
4	0	0	0	0	0	501	0	0	0	0	
5	0	0	0	0	4	501	0	0	0	0	
6	0	0	0	0	0	500	0	0	0	0	
7	0	0	0	0	0	500	0	0	0	0	
8	0	0	0	0	0	500	0	0	0	0	
9	0	0	0	0	0	501	0	0	0	0	
10	0	0	0	0	0	502	0	1	0	0	
11	0	0	0	0	0	501	0	0	0	0	
12	0	0	0	0	0	500	0	0	0	0	
13	0	0	0	0	4	498	0	0	0	0	
14	0	0	0	0	0	497	0	0	0	0	
15	0	0	0	0	0	498	0	0	0	0	
0	0	0	0	0	0	497	0	0	0	0	
1	0	0	0	0	0	498	0	0	0	0	
2	0	0	0	0	0	500	0	1	0	0	
3	0	0	0	0	0	500	0	0	0	0	
4	0	0	0	0	0	499	0	0	0	0	
5	0	0	0	0	4	497	0	0	0	0	
6	0	0	0	0	0	496	0	0	0	0	
7	0	0	0	0	0	496	0	0	0	0	
8	0	0	0	0	0	497	0	0	0	0	
9	0	0	0	0	0	498	0	0	0	0	
10	0	0	0	0	0	500	0	1	0	0	
11	0	0	0	0	0	500	0	0	0	0	
12	0	0	0	0	0	499	0	0	0	0	
13	0	0	0	0	4	499	0	0	0	0	
14	0	0	0	0	0	498	0	0	0	0	
15	0	0	0	0	0	498	0	0	0	0	
0	0	0	0	0	0	497	0	0	0	0	
1	0	0	0	0	0	496	0	0	0	0	
2	0	0	0	0	0	495	0	1	0	0	
3	0	0	0	0	0	494	0	0	0	0	
4	0	0	0	0	0	494	0	0	0	0	
5	0	0	0	0	4	492	0	0	0	0	
6	0	0	0	0	0	491	0	0	0	0	
7	0	0	0	0	0	489	0	0	0	0	
8	0	0	0	0	0	488	0	0	0	0	
9	0	0	0	0	0	486	0	0	0	0	
10	0	0	0	0	0	485	0	1	0	0	
11	0	0	0	0	0	486	0	0	0	0	
12	0	0	0	0	0	489	0	0	0	0	
13	0	0	0	0	4	492	0	0	0	0	
14	0	0	0	0	0	494	0	0	0	0	
15	0	0	0	0	0	495	0	0	0	0	
0	0	0	0	0	0	494	0	0	0	0	
1	0	0	0	0	0	494	0	0	0	0	
2	0	0	0	0	0	495	0	1	0	0	
3	0	0	0	0	0	495	0	0	0	0	
4	0	0	0	0	0	496	0	0	0	0	
5	0	0	0	0	4	497	0	0	0	0	
6	0	0	0	0	0	498	0	0	0	0	
7	0	0	0	0	0	499	0	0	0	0	
8	0	0	0	0	0	499	0	0	0	0	
9	0	0	0	0	0	499	0	0	0	0	
10	0	0	0	0	0	499	0	1	0	0	
11	0	0	0	0	0	500	0	0	0	0	
12	0	0	0	0	0	502	0	0	0	0	
13	0	0	0	0	4	504	0	0	0	0	
14	0	0	0	0	0	505	0	0	0	0	
15	0	0	0	0	0	505	0	0	0	0	
0	0	0	0	0	0	504	0	0	0	0	
1	0	0	0	0	0	503	0	0	0	0	
2	0	0	0	0	0	504	0	1	0	0	
3	0	0	0	0	0	504	0	0	0	0	
4	0	0	0	0	0	505	0	0	0	0	
5	0	0	0	0	4	508	0	0	0	0	
6	0	0	0	0	0	508	0	0	0	0	
7	0	0	0	0	0	507	0	0	0	0	
8	0	0	0	0	0	505	0	0	0	0	
9	0	0	0	0	0	507	0	0	0	0	
10	0	0	0	0	0	508	0	1	0	0	
11	0	0	0	0	0	507	0	0	0	0	
12	0	0	0	0	0	507	0	0	0	0	
13	0	0	0	0	1	508	0	0	0	0	
14	0	0	0	0	0	510	0	0	0	0	
15	0	0	0	0	0	513	0	0	0	0	
0	0	0	0	0	0	515	0	0	0	0	
1	0	0	0	0	0	517	0	0	0	0	
2	0	0	0	0	0	517	0	1	0	0	
3	0	0	0	0	0	516	0	0	0	0	
4	0	0	0	0	0	515	0	0	0	0	
5	0	0	0	0	1	514	0	0	0	0	
6	0	0	0	0	0	513	0	0	0	0	
7	0	0	0	0	0	511	0	0	0	0	
8	0	0	0	0	0	510	0	0	0	0	
9	0	0	0	0	0	509	0	0	0	0	
10	0	0	0	0	0	509	0	1	0	0	
11	0	0	0	0	0	507	0	0	0	0	
12	0	0	0	0	0	504	0	0	0	0	
13	0	0	0	0	1	501	0	0	0	0	
14	0	0	0	0	0	498	0	0	0	0	
15	0	0	0	0	0	497	0	0	0	0	
0	0	0	0	0	0	499	0	0	0	0	
1	0	0	0	0	0	501	0	0	0	0	
2	0	0	0	0	0	502	0	1	0	0	
3	0	0	0	0	0	500	0	0	0	0	
4	0	0	0	0	0	498	0	0	0	0	
5	0	0	0	0	4	498	0	0	0	0	
6	0	0	0	0	0	499	0	0	0	0	
7	0	0	0	0	0	498	0	0	0	0	
8	0	0	0	0	0	496	0	0	0	0	
9	0	0	0	0	0	496	0	0	0	0	
10	0	0	0	0	0	496	0	1	0	0	
11	0	0	0	0	0	497	0	0	0	0	
12	0	0	0	0	0	499	0	0	0	0	
13	0	0	0	0	4	499	0	0	0	0	
14	0	0	0	0	0	499	0	0	0	0	
15	0	0	0	0	0	498	0	0	0	0	
0	0	0	0	0	0	497	0	0	0	0	
1	0	0	0	0	0	498	0	0	0	0	
2	0	0	0	0	0	498	0	1	0	0	
3	0	0	0	0	0	497	0	0	0	0	
4	0	0	0	0	1	495	0	0	0	0	
5	0	0	0	0	4	494	0	0	0	0	
6	0	0	0	0	0	493	0	0	0	0	
7	0	0	0	0	0	493	0	0	0	0	
8	0	0	0	0	0	493	0	0	0	0	
9	0	0	0	0	0	491	0	0	0	0	
10	0	0	0	0	0	487	0	1	0	0	
11	0	0	0	0	0	486	0	0	0	0	
12	0	0	0	0	0	487	0	0	0	0	
13	0	0	0	0	4	487	0	0	0	0	
14	0	0	0	0	0	488	0	0	0	0	
15	0	0	0	0	0	490	0	0	0	0	
0	0	0	0	0	0	491	0	0	0	0	
1	0	0	0	0	0	492	0	0	0	0	
2	0	0	0	0	0	491	0	1	0	0	
3	0	0	0	0	0	492	0	0	0	0	
4	0	0	0	0	0	493	0	0	0	0	
5	0	0	0	0	4	494	0	0	0	0	
6	0	0	0	0	0	495	0	0	0	0	
7	0	0	0	0	0	499	0	0	0	0	
8	0	0	0	0	0	503	0	0	0	0	
9	0	0	0	0	0	507	0	0	0	0	
10	0	0	0	0	0	508	0	1	0	0	
11	0	0	0	0	0	510	0	0	0	0	
12	0	0	0	0	0	513	0	0	0	0	
13	0	0	0	0	4	515	0	0	0	0	
14	0	0	0	0	0	515	0	0	0	0	
15	0	0	0	0	0	516	0	0	0	0	
0	0	0	0	0	0	516	0	0	0	0	
1	0	0	0	0	0	518	0	0	0	0	
2	0	0	0	0	0	520	0	1	0	0	
3	0	0	0	0	0	522	1	0	0	0	
4	0	0	0	0	0	523	0	0	0	0	
5	0	0	0	0	4	523	0	0	0	0	
6	0	0	0	0	0	526	0	0	0	0	
7	0	0	0	0	0	527	0	0	0	0	
8	0	0	0	0	0	529	0	0	0	0	
9	0	0	0	0	0	530	0	0	0	0	
10	0	0	0	0	0	530	0	1	0	0	
11	0	0	0	0	0	530	1	0	0	0	
12	0	0	0	0	0	529	0	0	0	0	
13	0	0	0	0	4	530	0	0	0	0	
14	0	0	0	0	0	531	0	0	0	0	
15	0	0	0	0	0	531	0	0	0	0	
0	0	0	0	0	0	530	0	0	0	0	
1	0	0	0	0	0	532	0	0	0	0	
2	0	0	0	0	0	534	0	1	0	0	
3	0	0	0	0	0	534	1	0	0	0	
4	0	0	0	0	0	535	0	0	0	0	
5	0	0	0	0	4	535	0	0	0	0	
6	0	0	0	0	0	534	0	0	0	0	
7	0	0	0	0	0	531	0	0	0	0	
8	0	0	0	0	0	531	0	0	0	0	
9	0	0	0	0	0	530	0	0	0	0	
10	0	0	0	0	0	530	0	1	0	0	
11	0	0	0	0	0	530	0	0	0	0	
12	0	0	0	0	0	532	0	0	0	0	
13	0	0	0	0	4	534	0	0	0	0	
14	0	0	0	0	0	535	0	0	0	0	
15	0	0	0	0	0	534	0	0	0	0	
0	0	0	0	0	0	534	0	0	0	0	
1	0	0	0	0	0	534	0	0	0	0	
2	0	0	0	0	0	534	0	1	0	0	
3	0	0	0	0	0	535	1	0	0	0	
4	0	0	0	0	0	536	0	0	0	0	
5	0	0	0	0	4	537	0	0	0	0	
6	0	0	0	0	0	540	0	0	0	0	
7	0	0	0	0	0	543	0	0	0	0	
8	0	0	0	0	0	544	0	0	0	0	
9	0	0	0	0	0	542	0	0	0	0	
10	0	0	0	0	0	540	0	1	0	0	
11	0	0	0	0	0	540	0	0	0	0	
12	0	0	0	0	0	540	0	0	0	0	
13	0	0	0	0	2	543	0	0	0	0	
14	0	0	0	0	0	543	0	0	0	0	
15	0	0	0	0	0	546	0	0	0	0	
0	0	0	0	0	0	549	0	0	0	0	
1	0	0	0	0	0	552	0	0	0	0	
2	0	0	0	0	0	553	0	1	0	0	
3	0	0	0	0	0	552	0	0	0	0	
4	0	0	0	0	0	551	0	0	0	0	
5	0	0	0	0	2	551	0	0	0	0	
6	0	0	0	0	0	553	0	0	0	0	
7	0	0	0	0	0	553	0	0	0	0	
8	0	0	0	0	0	555	0	0	0	0	
9	0	0	0	0	0	557	0	0	0	0	
10	0	0	0	0	0	558	0	1	0	0	
11	0	0	0	0	0	558	0	0	0	0	
12	0	0	0	0	0	557	0	0	0	0	
13	0	0	0	0	2	555	0	0	0	0	
14	0	0	0	0	0	552	0	0	0	0	
15	0	0	0	0	0	550	0	0	0	0	
0	0	0	0	0	0	548	0	0	0	0	
1	0	0	0	0	0	545	0	0	0	0	
2	0	0	0	0	0	544	0	1	0	0	
3	0	0	0	0	0	545	1	0	0	0	
4	0	0	0	0	0	545	0	0	0	0	
5	0	0	0	0	4	544	0	0	0	0	
6	0	0	0	0	0	543	0	0	0	0	
7	0	0	0	0	0	542	0	0	0	0	
8	0	0	0	0	0	540	0	0	0	0	
9	0	0	0	0	0	540	0	0	0	0	
10	0	0	0	0	0	541	0	1	0	0	
11	0	0	0	0	0	540	1	0	0	0	
12	0	0	0	0	0	536	0	0	0	0	
13	0	0	0	0	4	531	0	0	0	0	
14	0	0	0	0	0	529	0	0	0	0	
15	0	0	0	0	0	527	0	0	0	0	
0	0	0	0	0	0	525	0	0	0	0	
1	0	0	0	0	0	521	0	0	0	0	
2	0	0	0	0	0	518	0	1	0	0	
3	0	0	0	0	0	518	1	0	0	0	
4	0	0	0	0	0	519	0	0	0	0	
5	0	0	0	0	4	519	0	0	0	0	
6	0	0	0	0	0	523	0	0	0	0	
7	0	0	0	0	0	524	0	0	0	0	
8	0	0	0	0	0	525	0	0	0	0	
9	0	0	0	0	0	526	0	0	0	0	
10	0	0	0	0	0	527	0	1	0	0	
11	0	0	0	0	0	527	1	0	0	0	
12	0	0	0	0	0	528	0	0	0	0	
13	0	0	0	0	4	529	0	0	0	0	
14	0	0	0	0	0	532	0	0	0	0	
15	0	0	0	0	0	535	0	0	0	0	
0	0	0	0	0	0	537	0	0	0	0	
1	0	0	0	0	0	538	0	0	0	0	
2	0	0	0	0	0	536	0	1	0	0	
3	0	0	0	0	0	535	1	0	0	0	
4	0	0	0	0	0	534	0	0	0	0	
5	0	0	0	0	4	535	0	0	0	0	
6	0	0	0	0	0	538	0	0	0	0	
7	0	0	0	0	0	541	0	0	0	0	
8	0	0	0	0	0	543	0	0	0	0	
9	0	0	0	0	0	545	0	0	0	0	
10	0	0	0	0	0	543	0	1	0	0	
11	0	0	0	0	0	539	1	0	0	0	
12	0	0	0	0	0	538	0	0	0	0	
13	0	0	0	0	4	543	0	0	0	0	
14	0	0	0	0	0	547	0	0	0	0	
15	0	0	0	0	0	550	0	0	0	0	
0	0	0	0	0	0	550	0	0	0	0	
1	0	0	0	0	0	551	0	0	0	0	
2	0	0	0	0	0	554	0	1	0	0	
3	0	0	0	0	0	556	1	0	0	0	
4	0	0	0	0	0	559	0	0	0	0	
5	0	0	0	0	4	561	0	0	0	0	
6	0	0	0	0	0	565	0	0	0	0	
7	0	0	0	0	0	569	0	0	0	0	
8	0	0	0	0	0	570	0	0	0	0	
9	0	0	0	0	0	568	0	0	0	0	
10	0	0	0	0	0	567	0	1	0	0	
11	0	0	0	0	0	566	1	0	0	0	
12	0	0	0	0	0	566	0	0	0	0	
13	0	0	0	0	4	564	0	0	0	0	
14	0	0	0	0	0	564	0	0	0	0	
15	0	0	0	0	0	566	0	0	0	0	
0	0	0	0	0	0	566	0	0	0	0	
1	0	0	0	0	0	566	0	0	0	0	
2	0	0	0	0	0	569	0	1	0	0	
3	0	0	0	0	0	578	1	0	0	0	
4	0	0	0	0	0	588	0	0	0	0	
5	0	0	0	0	4	598	0	0	0	0	
6	0	0	0	0	0	608	0	0	0	0	
7	0	0	0	0	0	619	0	0	0	0	
8	0	0	0	0	0	632	1	0	0	0	
9	0	0	0	0	0	648	0	0	0	0	
10	0	0	0	0	0	664	1	1	0	0	
11	0	0	0	0	0	677	1	0	0	0	
12	0	0	0	0	0	688	1	0	0	0	
13	0	0	0	0	4	701	1	0	0	0	
14	0	0	0	0	0	715	1	0	0	0	
15	0	0	0	0	0	728	1	0	0	0	
0	0	0	0	0	0	742	1	0	0	0	
1	0	0	0	0	0	755	1	0	0	0	
2	0	0	0	0	0	768	1	1	0	0	
3	0	0	0	0	0	782	2	0	0	0	
4	0	0	0	0	0	801	1	0	0	0	
5	0	0	0	0	4	824	1	0	0	0	
6	0	0	0	0	0	849	2	0	0	0	
7	0	0	0	0	0	873	2	0	0	0	
8	0	0	0	0	0	898	2	0	0	0	
9	0	0	0	0	0	923	2	0	0	0	
10	0	0	0	0	0	945	2	1	0	0	
11	0	0	0	0	0	967	3	0	0	0	
12	0	0	0	0	0	985	3	0	0	0	
13	0	0	0	0	1	1000	3	0	0	0	
14	0	0	0	0	0	1015	3	0	0	0	
15	0	0	0	0	0	1021	3	0	0	0	
0	0	0	0	0	0	1022	3	0	0	0	
1	0	0	0	0	0	1022	3	0	0	0	
2	0	0	0	0	0	1022	3	1	0	0	
3	0	0	0	0	0	1020	3	0	0	0	
4	0	0	0	0	0	993	3	0	0	0	
5	0	0	0	0	1	964	3	0	0	0	
6	0	0	0	0	0	928	2	0	0	0	
7	0	0	0	0	0	887	2	0	0	0	
8	0	0	0	0	0	841	2	0	0	0	
9	0	0	0	0	0	795	1	0	0	0	
10	0	0	0	0	0	750	1	1	0	0	
11	0	0	0	0	0	707	1	0	0	0	
12	0	0	0	0	0	669	1	0	0	0	
13	0	0	0	0	4	637	1	0	0	0	
14	0	0	0	0	0	608	0	0	0	0	
15	0	0	0	0	0	581	0	0	0	0	
0	0	0	0	0	0	557	0	0	0	0	
1	0	0	0	0	0	536	0	0	0	0	
2	0	0	0	0	0	518	0	1	0	0	
3	0	0	0	0	0	500	0	0	0	0	
4	0	0	0	0	0	484	0	0	0	0	
5	0	0	0	0	4	469	0	0	0	0	
6	0	0	0	0	0	455	0	0	0	0	
7	0	0	0	0	0	442	0	0	0	0	
8	0	0	0	0	0	428	0	0	0	0	
9	0	0	0	0	0	418	0	0	0	0	
10	0	0	0	0	0	408	0	1	0	0	
11	0	0	0	0	0	396	0	0	0	0	
12	0	0	0	0	0	386	0	0	0	0	
13	0	0	0	0	4	374	0	0	0	0	
14	0	0	0	0	0	363	0	0	0	0	
15	0	0	0	0	0	353	0	0	0	0	
0	0	0	0	0	0	343	0	0	0	0	
1	0	0	0	0	0	335	0	0	0	0	
2	0	0	0	0	0	329	0	1	0	0	
3	0	0	0	0	0	324	0	0	0	0	
4	0	0	0	0	0	323	0	0	0	0	
5	0	0	0	0	4	324	0	0	0	0	
6	0	0	0	0	0	330	0	0	0	0	
7	0	0	0	0	0	339	0	0	0	0	
8	0	0	0	0	0	348	0	0	0	0	
9	0	0	0	0	0	355	0	0	0	0	
10	0	0	0	0	0	364	0	1	0	0	
11	0	0	0	0	0	372	0	0	0	0	
12	0	0	0	0	0	381	0	0	0	0	
13	0	0	0	0	4	390	0	0	0	0	
14	0	0	0	0	0	397	0	0	0	0	
15	0	0	0	0	0	404	0	0	0	0	
0	0	0	0	0	0	411	0	0	0	0	
1	0	0	0	0	0	417	0	0	0	0	
2	0	0	0	0	0	425	0	1	0	0	
3	0	0	0	0	0	432	0	0	0	0	
4	0	0	0	0	0	437	0	0	0	0	
5	0	0	0	0	4	440	0	0	0	0	
6	0	0	0	0	0	444	0	0	0	0	
7	0	0	0	0	0	449	0	0	0	0	
8	0	0	0	0	0	452	0	0	0	0	
9	0	0	0	0	0	455	0	0	0	0	
10	0	0	0	0	0	457	0	1	0	0	
11	0	0	0	0	0	457	0	0	0	0	
12	0	0	0	0	0	458	0	0	0	0	
13	0	0	0	0	4	460	0	0	0	0	
14	0	0	0	0	0	462	0	0	0	0	
15	0	0	0	0	0	463	0	0	0	0	
0	0	0	0	0	0	462	0	0	0	0	
1	0	0	0	0	0	462	0	0	0	0	
2	0	0	0	0	0	462	0	1	0	0	
3	0	0	0	0	0	461	0	0	0	0	
4	0	0	0	0	0	461	0	0	0	0	
5	0	0	0	0	4	462	0	0	0	0	
6	0	0	0	0	0	464	0	0	0	0	
7	0	0	0	0	0	466	0	0	0	0	
8	0	0	0	0	0	469	0	0	0	0	
9	0	0	0	0	0	471	0	0	0	0	
10	0	0	0	0	0	472	0	1	0	0	
11	0	0	0	0	0	473	0	0	0	0	
12	0	0	0	0	0	476	0	0	0	0	
13	0	0	0	0	4	477	0	0	0	0	
14	0	0	0	0	0	478	0	0	0	0	
15	0	0	0	0	0	480	0	0	0	0	
0	0	0	0	0	0	482	0	0	0	0	
1	0	0	0	0	0	484	0	0	0	0	
2	0	0	0	0	0	485	0	1	0	0	
3	0	0	0	0	0	486	0	0	0	0	
4	0	0	0	0	0	488	0	0	0	0	
5	0	0	0	0	4	489	0	0	0	0	
6	0	0	0	0	0	491	0	0	0	0	
7	0	0	0	0	0	493	0	0	0	0	
8	0	0	0	0	0	495	0	0	0	0	
9	0	0	0	0	0	499	0	0	0	0	
10	0	0	0	0	0	499	0	1	0	0	
11	0	0	0	0	0	499	0	0	0	0	
12	0	0	0	0	0	499	0	0	0	0	
13	0	0	0	0	4	501	0	0	0	0	
14	0	0	0	0	0	503	0	0	0	0	
15	0	0	0	0	0	504	0	0	0	0	
0	0	0	0	0	0	504	0	0	0	0	
1	0	0	0	0	0	505	0	0	0	0	
2	0	0	0	0	0	507	0	1	0	0	
3	0	0	0	0	0	508	0	0	0	0	
4	0	0	0	0	0	508	0	0	0	0	
5	0	0	0	0	2	507	0	0	0	0	
6	0	0	0	0	0	510	0	0	0	0	
7	0	0	0	0	0	514	0	0	0	0	
8	0	0	0	0	0	514	0	0	0	0	
9	0	0	0	0	0	515	0	0	0	0	
10	0	0	0	0	0	518	0	1	0	0	
11	0	0	0	0	0	521	0	0	0	0	
12	0	0	0	0	0	525	0	0	0	0	
13	0	0	0	0	2	529	0	0	0	0	
14	0	0	0	0	0	531	0	0	0	0	
15	0	0	0	0	0	534	0	0	0	0	
0	0	0	0	0	0	534	0	0	0	0	
1	0	0	0	0	0	536	0	0	0	0	
2	0	0	0	0	0	536	0	1	0	0	
3	0	0	0	0	0	538	0	0	0	0	
4	0	0	0	0	0	542	0	0	0	0	
5	0	0	0	0	2	545	0	0	0	0	
6	0	0	0	0	0	547	0	0	0	0	
7	0	0	0	0	0	550	0	0	0	0	
8	0	0	0	0	0	551	0	0	0	0	
9	0	0	0	0	0	550	0	0	0	0	
10	0	0	0	0	0	550	0	1	0	0	
11	0	0	0	0	0	551	1	0	0	0	
12	0	0	0	0	0	555	0	0	0	0	
13	0	0	0	0	4	559	0	0	0	0	
14	0	0	0	0	0	560	0	0	0	0	
15	0	0	0	0	0	562	0	0	0	0	
0	0	0	0	0	0	565	0	0	0	0	
1	0	0	0	0	0	567	0	0	0	0	
2	0	0	0	0	0	568	0	1	0	0	
3	0	0	0	0	0	568	1	0	0	0	
4	0	0	0	0	1	568	0	0	0	0	
5	0	0	0	0	4	568	0	0	0	0	
6	0	0	0	0	0	567	0	0	0	0	
7	0	0	0	0	0	566	0	0	0	0	
8	0	0	0	0	0	567	0	0	0	0	
9	0	0	0	0	0	568	0	0	0	0	
10	0	0	0	0	0	569	0	1	0	0	
11	0	0	0	0	0	571	1	0	0	0	
12	0	0	0	0	1	571	0	0	0	0	
13	0	0	0	0	4	572	0	0	0	0	
14	0	0	0	0	0	574	0	0	0	0	
15	0	0	0	0	0	574	0	0	0	0	
0	0	0	0	0	0	573	0	0	0	0	
1	0	0	0	0	0	574	0	0	0	0	
2	0	0	0	0	0	574	0	1	0	0	
3	0	0	0	0	0	575	1	0	0	0	
4	0	0	0	0	0	578	0	0	0	0	
5	0	0	0	0	4	580	0	0	0	0	
6	0	0	0	0	0	581	0	0	0	0	
7	0	0	0	0	0	579	0	0	0	0	
8	0	0	0	0	0	580	0	0	0	0	
9	0	0	0	0	0	582	0	0	0	0	
10	0	0	0	0	0	583	0	1	0	0	
11	0	0	0	0	0	582	1	0	0	0	
12	0	0	0	0	0	582	0	0	0	0	
13	0	0	0	0	4	583	0	0	0	0	
14	0	0	0	0	0	585	0	0	0	0	
15	0	0	0	0	0	586	0	0	0	0	
0	0	0	0	0	0	586	0	0	0	0	
1	0	0	0	0	0	585	0	0	0	0	
2	0	0	0	0	0	586	0	1	0	0	
3	0	0	0	0	0	587	1	0	0	0	
4	0	0	0	0	0	586	0	0	0	0	
5	0	0	0	0	4	584	0	0	0	0	
6	0	0	0	0	0	583	0	0	0	0	
7	0	0	0	0	0	583	0	0	0	0	
8	0	0	0	0	0	582	0	0	0	0	
9	0	0	0	0	0	580	0	0	0	0	
10	0	0	0	0	0	580	0	1	0	0	
11	0	0	0	0	0	581	1	0	0	0	
12	0	0	0	0	0	580	0	0	0	0	
13	0	0	0	0	4	580	0	0	0	0	
14	0	0	0	0	0	578	0	0	0	0	
15	0	0	0	0	0	575	0	0	0	0	
0	0	0	0	0	0	574	0	0	0	0	
1	0	0	0	0	0	573	0	0	0	0	
2	0	0	0	0	0	572	0	1	0	0	
3	0	0	0	0	0	569	1	0	0	0	
4	0	0	0	0	0	569	0	0	0	0	
5	0	0	0	0	4	570	0	0	0	0	
6	0	0	0	0	0	570	0	0	0	0	
7	0	0	0	0	0	572	0	0	0	0	
8	0	0	0	0	0	570	0	0	0	0	
9	0	0	0	0	0	568	0	0	0	0	
10	0	0	0	0	0	564	0	1	0	0	
11	0	0	0	0	0	562	1	0	0	0	
12	0	0	0	0	0	560	0	0	0	0	
13	0	0	0	0	4	560	0	0	0	0	
14	0	0	0	0	0	560	0	0	0	0	
15	0	0	0	0	0	560	0	0	0	0	
0	0	0	0	0	0	559	0	0	0	0	
1	0	0	0	0	0	558	0	0	0	0	
2	0	0	0	0	0	557	0	1	0	0	
3	0	0	0	0	0	557	1	0	0	0	
4	0	0	0	0	0	556	0	0	0	0	
5	0	0	0	0	4	554	0	0	0	0	
6	0	0	0	0	0	553	0	0	0	0	
7	0	0	0	0	0	552	0	0	0	0	
8	0	0	0	0	0	551	0	0	0	0	
9	0	0	0	0	0	547	0	0	0	0	
10	0	0	0	0	0	544	0	1	0	0	
11	0	0	0	0	0	542	1	0	0	0	
12	0	0	0	0	0	540	0	0	0	0	
13	0	0	0	0	4	540	0	0	0	0	
14	0	0	0	0	0	540	0	0	0	0	
15	0	0	0	0	0	537	0	0	0	0	
0	0	0	0	0	0	535	0	0	0	0	
1	0	0	0	0	0	533	0	0	0	0	
2	0	0	0	0	0	532	0	1	0	0	
3	0	0	0	0	0	531	0	0	0	0	
4	0	0	0	0	0	530	0	0	0	0	
5	0	0	0	0	1	528	0	0	0	0	
6	0	0	0	0	0	526	0	0	0	0	
7	0	0	0	0	0	524	0	0	0	0	
8	0	0	0	0	0	523	0	0	0	0	
9	0	0	0	0	0	520	0	0	0	0	
10	0	0	0	0	0	519	0	1	0	0	
11	0	0	0	0	0	518	0	0	0	0	
12	0	0	0	0	0	517	0	0	0	0	
13	0	0	0	0	1	517	0	0	0	0	
14	0	0	0	0	0	516	0	0	0	0	
15	0	0	0	0	0	515	0	0	0	0	
0	0	0	0	0	0	514	0	0	0	0	
1	0	0	0	0	0	513	0	0	0	0	
2	0	0	0	0	0	513	0	1	0	0	
3	0	0	0	0	0	514	0	0	0	0	
4	0	0	0	0	0	515	0	0	0	0	
5	0	0	0	0	1	515	0	0	0	0	
6	0	0	0	0	0	513	0	0	0	0	
7	0	0	0	0	0	510	0	0	0	0	
8	0	0	0	0	0	508	0	0	0	0	
9	0	0	0	0	0	508	0	0	0	0	
10	0	0	0	0	0	506	0	1	0	0	
11	0	0	0	0	0	505	0	0	0	0	
12	0	0	0	0	0	504	0	0	0	0	
13	0	0	0	0	4	503	0	0	0	0	
14	0	0	0	0	0	501	0	0	0	0	
15	0	0	0	0	0	500	0	0	0	0	
0	0	0	0	0	0	499	0	0	0	0	
1	0	0	0	0	0	500	0	0	0	0	
2	0	0	0	0	0	499	0	1	0	0	
3	0	0	0	0	0	499	0	0	0	0	
4	0	0	0	0	0	500	0	0	0	0	
5	0	0	0	0	4	502	0	0	0	0	
6	0	0	0	0	0	501	0	0	0	0	
7	0	0	0	0	0	502	0	0	0	0	
8	0	0	0	0	0	503	0	0	0	0	
9	0	0	0	0	0	503	0	0	0	0	
10	0	0	0	0	0	503	0	1	0	0	
11	0	0	0	0	0	502	0	0	0	0	
12	0	0	0	0	0	502	0	0	0	0	
13	0	0	0	0	4	502	0	0	0	0	
14	0	0	0	0	0	501	0	0	0	0	
15	0	0	0	0	0	499	0	0	0	0	
0	0	0	0	0	0	496	0	0	0	0	
1	0	0	0	0	0	493	0	0	0	0	
2	0	0	0	0	0	490	0	1	0	0	
3	0	0	0	0	0	487	0	0	0	0	
4	0	0	0	0	0	487	0	0	0	0	
5	0	0	0	0	4	486	0	0	0	0	
6	0	0	0	0	0	483	0	0	0	0	
7	0	0	0	0	0	483	0	0	0	0	
8	0	0	0	0	0	481	0	0	0	0	
9	0	0	0	0	0	480	0	0	0	0	
10	0	0	0	0	0	480	0	1	0	0	
11	0	0	0	0	0	481	0	0	0	0	
12	0	0	0	0	0	480	0	0	0	0	
13	0	0	0	0	4	478	0	0	0	0	
14	0	0	0	0	0	475	0	0	0	0	
15	0	0	0	0	0	472	0	0	0	0	
0	0	0	0	0	0	470	0	0	0	0	
1	0	0	0	0	0	470	0	0	0	0	
2	0	0	0	0	0	469	0	1	0	0	
3	0	0	0	0	0	468	0	0	0	0	
4	0	0	0	0	0	465	0	0	0	0	
5	0	0	0	0	4	463	0	0	0	0	
6	0	0	0	0	0	463	0	0	0	0	
7	0	0	0	0	0	464	0	0	0	0	
8	0	0	0	0	0	464	0	0	0	0	
9	0	0	0	0	0	463	0	0	0	0	
10	0	0	0	0	0	461	0	1	0	0	
11	0	0	0	0	0	458	0	0	0	0	
12	0	0	0	0	0	455	0	0	0	0	
13	0	0	0	0	4	451	0	0	0	0	
14	0	0	0	0	0	447	0	0	0	0	
15	0	0	0	0	0	445	0	0	0	0	
0	0	0	0	0	0	444	0	0	0	0	
1	0	0	0	0	0	446	0	0	0	0	
2	0	0	0	0	0	447	0	1	0	0	
3	0	0	0	0	0	446	0	0	0	0	
4	0	0	0	0	0	444	0	0	0	0	
5	0	0	0	0	4	443	0	0	0	0	
6	0	0	0	0	0	441	0	0	0	0	
7	0	0	0	0	0	439	0	0	0	0	
8	0	0	0	0	0	439	0	0	0	0	
9	0	0	0	0	0	438	0	0	0	0	
10	0	0	0	0	0	438	0	1	0	0	
11	0	0	0	0	0	435	0	0	0	0	
12	0	0	0	0	0	433	0	0	0	0	
13	0	0	0	0	4	431	0	0	0	0	
14	0	0	0	0	0	428	0	0	0	0	
15	0	0	0	0	0	426	0	0	0	0	
0	0	0	0	0	0	424	0	0	0	0	
1	0	0	0	0	0	423	0	0	0	0	
2	0	0	0	0	0	420	0	1	0	0	
3	0	0	0	0	0	417	0	0	0	0	
4	0	0	0	0	0	416	0	0	0	0	
5	0	0	0	0	4	415	0	0	0	0	
6	0	0	0	0	0	415	0	0	0	0	
7	0	0	0	0	0	414	0	0	0	0	
8	0	0	0	0	0	414	0	0	0	0	
9	0	0	0	0	0	413	0	0	0	0	
10	0	0	0	0	0	413	0	1	0	0	
11	0	0	0	0	0	415	0	0	0	0	
12	0	0	0	0	0	418	0	0	0	0	
13	0	0	0	0	4	419	0	0	0	0	
14	0	0	0	0	0	418	0	0	0	0	
15	0	0	0	0	0	418	0	0	0	0	
0	0	0	0	0	0	418	0	0	0	0	
1	0	0	0	0	0	419	0	0	0	0	
2	0	0	0	0	0	421	0	1	0	0	
3	0	0	0	0	0	424	0	0	0	0	
4	0	0	0	0	0	426	0	0	0	0	
5	0	0	0	0	2	428	0	0	0	0	
6	0	0	0	0	0	430	0	0	0	0	
7	0	0	0	0	0	431	0	0	0	0	
8	0	0	0	0	0	432	0	0	0	0	
9	0	0	0	0	0	432	0	0	0	0	
10	0	0	0	0	0	432	0	1	0	0	
11	0	0	0	0	0	433	0	0	0	0	
12	0	0	0	0	0	432	0	0	0	0	
13	0	0	0	0	2	434	0	0	0	0	
14	0	0	0	0	0	435	0	0	0	0	
15	0	0	0	0	0	434	0	0	0	0	
0	0	0	0	0	0	435	0	0	0	0	
1	0	0	0	0	0	436	0	0	0	0	
2	0	0	0	0	0	435	0	1	0	0	
3	0	0	0	0	0	437	0	0	0	0	
4	0	0	0	0	0	438	0	0	0	0	
5	0	0	0	0	4	439	0	0	0	0	
6	0	0	0	0	0	440	0	0	0	0	
7	0	0	0	0	0	441	0	0	0	0	
8	0	0	0	0	0	442	0	0	0	0	
9	0	0	0	0	0	441	0	0	0	0	
10	0	0	0	0	0	442	0	1	0	0	
11	0	0	0	0	0	444	0	0	0	0	
12	0	0	0	0	0	447	0	0	0	0	
13	0	0	0	0	4	449	0	0	0	0	
14	0	0	0	0	0	450	0	0	0	0	
15	0	0	0	0	0	453	0	0	0	0	
0	0	0	0	0	0	456	0	0	0	0	
1	0	0	0	0	0	457	0	0	0	0	
2	0	0	0	0	0	459	0	1	0	0	
3	0	0	0	0	0	460	0	0	0	0	
4	0	0	0	0	0	463	0	0	0	0	
5	0	0	0	0	4	467	0	0	0	0	
6	0	0	0	0	0	471	0	0	0	0	
7	0	0	0	0	0	472	0	0	0	0	
8	0	0	0	0	0	473	0	0	0	0	
9	0	0	0	0	0	473	0	0	0	0	
10	0	0	0	0	0	475	0	1	0	0	
11	0	0	0	0	0	477	0	0	0	0	
12	0	0	0	0	0	478	0	0	0	0	
13	0	0	0	0	4	477	0	0	0	0	
14	0	0	0	0	0	476	0	0	0	0	
15	0	0	0	0	0	477	0	0	0	0	
0	0	0	0	0	0	480	0	0	0	0	
1	0	0	0	0	0	480	0	0	0	0	
2	0	0	0	0	0	480	0	1	0	0	
3	0	0	0	0	0	481	0	0	0	0	
4	0	0	0	0	0	480	0	0	0	0	
5	0	0	0	0	4	478	0	0	0	0	
6	0	0	0	0	0	478	0	0	0	0	
7	0	0	0	0	0	480	0	0	0	0	
8	0	0	0	0	0	482	0	0	0	0	
9	0	0	0	0	0	482	0	0	0	0	
10	0	0	0	0	0	481	0	1	0	0	
11	0	0	0	0	0	480	0	0	0	0	
12	0	0	0	0	0	480	0	0	0	0	
13	0	0	0	0	4	480	0	0	0	0	
14	0	0	0	0	0	480	0	0	0	0	
15	0	0	0	0	0	482	0	0	0	0	
0	0	0	0	0	0	482	0	0	0	0	
1	0	0	0	0	0	483	0	0	0	0	
2	0	0	0	0	0	484	0	1	0	0	
3	0	0	0	0	0	485	0	0	0	0	
4	0	0	0	0	0	487	0	0	0	0	
5	0	0	0	0	4	489	0	0	0	0	
6	0	0	0	0	0	491	0	0	0	0	
7	0	0	0	0	0	492	0	0	0	0	
8	0	0	0	0	0	495	0	0	0	0	
9	0	0	0	0	0	499	0	0	0	0	
10	0	0	0	0	0	503	0	1	0	0	
11	0	0	0	0	0	503	0	0	0	0	
12	0	0	0	0	0	503	0	0	0	0	
13	0	0	0	0	4	504	0	0	0	0	
14	0	0	0	0	0	505	0	0	0	0	
15	0	0	0	0	0	506	0	0	0	0	
0	0	0	0	0	0	506	0	0	0	0	
1	0	0	0	0	0	505	0	0	0	0	
2	0	0	0	0	0	503	0	1	0	0	
3	0	0	0	0	0	502	0	0	0	0	
4	0	0	0	0	0	502	0	0	0	0	
5	0	0	0	0	4	500	0	0	0	0	
6	0	0	0	0	0	499	0	0	0	0	
7	0	0	0	0	0	497	0	0	0	0	
8	0	0	0	0	0	498	0	0	0	0	
9	0	0	0	0	0	498	0	0	0	0	
10	0	0	0	0	0	498	0	1	0	0	
11	0	0	0	0	0	499	0	0	0	0	
12	0	0	0	0	0	499	0	0	0	0	
13	0	0	0	0	4	499	0	0	0	0	
14	0	0	0	0	0	502	0	0	0	0	
15	0	0	0	0	0	504	0	0	0	0	
0	0	0	0	0	0	505	0	0	0	0	
1	0	0	0	0	0	506	0	0	0	0	
2	0	0	0	0	0	507	0	1	0	0	
3	0	0	0	0	0	508	0	0	0	0	
4	0	0	0	0	0	510	0	0	0	0	
5	0	0	0	0	4	512	0	0	0	0	
6	0	0	0	0	0	515	0	0	0	0	
7	0	0	0	0	0	516	0	0	0	0	
8	0	0	0	0	0	518	0	0	0	0	
9	0	0	0	0	0	518	0	0	0	0	
10	0	0	0	0	0	519	0	1	0	0	
11	0	0	0	0	0	520	0	0	0	0	
12	0	0	0	0	0	522	0	0	0	0	
13	0	0	0	0	1	524	0	0	0	0	
14	0	0	0	0	0	523	0	0	0	0	
15	0	0	0	0	0	521	0	0	0	0	
0	0	0	0	0	0	520	0	0	0	0	
1	0	0	0	0	0	519	0	0	0	0	
2	0	0	0	0	0	520	0	1	0	0	
3	0	0	0	0	0	519	0	0	0	0	
4	0	0	0	0	0	518	0	0	0	0	
5	0	0	0	0	1	516	0	0	0	0	
6	0	0	0	0	0	517	0	0	0	0	
7	0	0	0	0	0	517	0	0	0	0	
8	0	0	0	0	0	517	0	0	0	0	
9	0	0	0	0	0	519	0	0	0	0	
10	0	0	0	0	0	521	0	1	0	0	
11	0	0	0	0	0	521	0	0	0	0	
12	0	0	0	0	0	523	0	0	0	0	
13	0	0	0	0	1	526	0	0	0	0	
14	0	0	0	0	0	527	0	0	0	0	
15	0	0	0	0	0	528	0	0	0	0	
0	0	0	0	0	0	528	0	0	0	0	
1	0	0	0	0	0	528	0	0	0	0	
2	0	0	0	0	0	529	0	1	0	0	
3	0	0	0	0	0	530	1	0	0	0	
4	0	0	0	0	1	531	0	0	0	0	
5	0	0	0	0	4	530	0	0	0	0	
6	0	0	0	0	0	531	0	0	0	0	
7	0	0	0	0	0	531	0	0	0	0	
8	0	0	0	0	0	529	0	0	0	0	
9	0	0	0	0	0	528	0	0	0	0	
10	0	0	0	0	0	528	0	1	0	0	
11	0	0	0	0	0	528	0	0	0	0	
12	0	0	0	0	0	528	0	0	0	0	
13	0	0	0	0	4	526	0	0	0	0	
14	0	0	0	0	0	525	0	0	0	0	
15	0	0	0	0	0	525	0	0	0	0	
0	0	0	0	0	0	525	0	0	0	0	
1	0	0	0	0	0	524	0	0	0	0	
2	0	0	0	0	0	524	0	1	0	0	
3	0	0	0	0	0	524	0	0	0	0	
4	0	0	0	0	0	524	0	0	0	0	
5	0	0	0	0	4	524	0	0	0	0	
6	0	0	0	0	0	524	0	0	0	0	
7	0	0	0	0	0	522	0	0	0	0	
8	0	0	0	0	0	521	0	0	0	0	
9	0	0	0	0	0	520	0	0	0	0	
10	0	0	0	0	0	520	0	1	0	0	
11	0	0	0	0	0	519	1	0	0	0	
12	0	0	0	0	0	519	0	0	0	0	
13	0	0	0	0	4	518	0	0	0	0	
14	0	0	0	0	0	519	0	0	0	0	
15	0	0	0	0	0	519	0	0	0	0	
0	0	0	0	0	0	519	0	0	0	0	
1	0	0	0	0	0	520	0	0	0	0	
2	0	0	0	0	0	523	0	1	0	0	
3	0	0	0	0	0	526	1	0	0	0	
4	0	0	0	0	0	527	0	0	0	0	
5	0	0	0	0	4	528	0	0	0	0	
6	0	0	0	0	0	528	0	0	0	0	
7	0	0	0	0	0	527	0	0	0	0	
8	0	0	0	0	0	527	0	0	0	0	
9	0	0	0	0	0	527	0	0	0	0	
10	0	0	0	0	0	527	0	1	0	0	
11	0	0	0	0	0	527	0	0	0	0	
12	0	0	0	0	0	525	0	0	0	0	
13	0	0	0	0	4	523	0	0	0	0	
14	0	0	0	0	0	520	0	0	0	0	
15	0	0	0	0	0	518	0	0	0	0	
0	0	0	0	0	0	518	0	0	0	0	
1	0	0	0	0	0	519	0	0	0	0	
2	0	0	0	0	0	519	0	1	0	0	
3	0	0	0	0	0	519	1	0	0	0	
4	0	0	0	0	0	521	0	0	0	0	
5	0	0	0	0	4	521	0	0	0	0	
6	0	0	0	0	0	524	0	0	0	0	
7	0	0	0	0	0	526	0	0	0	0	
8	0	0	0	0	0	527	0	0	0	0	
9	0	0	0	0	0	528	0	0	0	0	
10	0	0	0	0	0	529	0	1	0	0	
11	0	0	0	0	0	526	1	0	0	0	
12	0	0	0	0	0	524	0	0	0	0	
13	0	0	0	0	4	524	0	0	0	0	
14	0	0	0	0	0	526	0	0	0	0	
15	0	0	0	0	0	526	0	0	0	0	
0	0	0	0	0	0	524	0	0	0	0	
1	0	0	0	0	0	524	0	0	0	0	
2	0	0	0	0	0	524	0	1	0	0	
3	0	0	0	0	0	524	1	0	0	0	
4	0	0	0	0	0	525	0	0	0	0	
5	0	0	0	0	4	524	0	0	0	0	
6	0	0	0	0	0	523	0	0	0	0	
7	0	0	0	0	0	524	0	0	0	0	
8	0	0	0	0	0	527	0	0	0	0	
9	0	0	0	0	0	529	0	0	0	0	
10	0	0	0	0	0	532	0	1	0	0	
11	0	0	0	0	0	534	1	0	0	0	
12	0	0	0	0	0	536	0	0	0	0	
13	0	0	0	0	4	536	0	0	0	0	
14	0	0	0	0	0	535	0	0	0	0	
15	0	0	0	0	0	532	0	0	0	0	
0	0	0	0	0	0	529	0	0	0	0	
1	0	0	0	0	0	526	0	0	0	0	
2	0	0	0	0	0	523	0	1	0	0	
3	0	0	0	0	0	522	0	0	0	0	
4	0	0	0	0	0	522	0	0	0	0	
5	0	0	0	0	4	523	0	0	0	0	
6	0	0	0	0	0	523	0	0	0	0	
7	0	0	0	0	0	521	0	0	0	0	
8	0	0	0	0	0	520	0	0	0	0	
9	0	0	0	0	0	519	0	0	0	0	
10	0	0	0	0	0	516	0	1	0	0	
11	0	0	0	0	0	514	0	0	0	0	
12	0	0	0	0	0	513	0	0	0	0	
13	0	0	0	0	2	512	0	0	0	0	
14	0	0	0	0	0	513	0	0	0	0	
15	0	0	0	0	0	513	0	0	0	0	
0	0	0	0	0	0	511	0	0	0	0	
1	0	0	0	0	0	510	0	0	0	0	
2	0	0	0	0	0	509	0	1	0	0	
3	0	0	0	0	0	508	0	0	0	0	
4	0	0	0	0	0	507	0	0	0	0	
5	0	0	0	0	2	508	0	0	0	0	
6	0	0	0	0	0	507	0	0	0	0	
7	0	0	0	0	0	507	0	0	0	0	
8	0	0	0	0	0	505	0	0	0	0	
9	0	0	0	0	0	502	0	0	0	0	
10	0	0	0	0	0	498	0	1	0	0	
11	0	0	0	0	0	495	0	0	0	0	
12	0	0	0	0	0	496	0	0	0	0	
13	0	0	0	0	2	497	0	0	0	0	
14	0	0	0	0	0	497	0	0	0	0	
15	0	0	0	0	0	496	0	0	0	0	
0	0	0	0	0	0	496	0	0	0	0	
1	0	0	0	0	0	496	0	0	0	0	
2	0	0	0	0	0	496	0	1	0	0	
3	0	0	0	0	0	495	0	0	0	0	
4	0	0	0	0	0	496	0	0	0	0	
5	0	0	0	0	4	498	0	0	0	0	
6	0	0	0	0	0	499	0	0	0	0	
7	0	0	0	0	0	499	0	0	0	0	
8	0	0	0	0	0	498	0	0	0	0	
9	0	0	0	0	0	497	0	0	0	0	
10	0	0	0	0	0	498	0	1	0	0	
11	0	0	0	0	0	497	0	0	0	0	
12	0	0	0	0	1	497	0	0	0	0	
13	0	0	0	0	4	498	0	0	0	0	
14	0	0	0	0	0	498	0	0	0	0	
15	0	0	0	0	0	498	0	0	0	0	
0	0	0	0	0	0	499	0	0	0	0	
1	0	0	0	0	0	500	0	0	0	0	
2	0	0	0	0	0	501	0	1	0	0	
3	0	0	0	0	0	502	0	0	0	0	
4	0	0	0	0	0	502	0	0	0	0	
5	0	0	0	0	4	502	0	0	0	0	
6	0	0	0	0	0	500	0	0	0	0	
7	0	0	0	0	0	497	0	0	0	0	
8	0	0	0	0	0	495	0	0	0	0	
9	0	0	0	0	0	494	0	0	0	0	
10	0	0	0	0	0	496	0	1	0	0	
11	0	0	0	0	0	497	0	0	0	0	
12	0	0	0	0	0	497	0	0	0	0	
13	0	0	0	0	4	498	0	0	0	0	
14	0	0	0	0	0	498	0	0	0	0	
15	0	0	0	0	0	497	0	0	0	0	
0	0	0	0	0	0	496	0	0	0	0	
1	0	0	0	0	0	496	0	0	0	0	
2	0	0	0	0	0	499	0	1	0	0	
3	0	0	0	0	0	502	0	0	0	0	
4	0	0	0	0	0	506	0	0	0	0	
5	0	0	0	0	4	509	0	0	0	0	
6	0	0	0	0	0	512	0	0	0	0	
7	0	0	0	0	0	514	0	0	0	0	
8	0	0	0	0	0	517	0	0	0	0	
9	0	0	0	0	0	517	0	0	0	0	
10	0	0	0	0	0	516	0	1	0	0	
11	0	0	0	0	0	514	0	0	0	0	
12	0	0	0	0	0	513	0	0	0	0	
13	0	0	0	0	4	514	0	0	0	0	
14	0	0	0	0	0	514	0	0	0	0	
15	0	0	0	0	0	517	0	0	0	0	
0	0	0	0	0	0	519	0	0	0	0	
1	0	0	0	0	0	519	0	0	0	0	
2	0	0	0	0	0	519	0	1	0	0	
3	0	0	0	0	0	519	0	0	0	0	
4	0	0	0	0	0	521	0	0	0	0	
5	0	0	0	0	4	523	0	0	0	0	
6	0	0	0	0	0	525	0	0	0	0	
7	0	0	0	0	0	527	0	0	0	0	
8	0	0	0	0	0	527	0	0	0	0	
9	0	0	0	0	0	524	0	0	0	0	
10	0	0	0	0	0	522	0	1	0	0	
11	0	0	0	0	0	521	0	0	0	0	
12	0	0	0	0	1	519	0	0	0	0	
13	0	0	0	0	4	518	0	0	0	0	
14	0	0	0	0	0	516	0	0	0	0	
15	0	0	0	0	0	516	0	0	0	0	
0	0	0	0	0	0	518	0	0	0	0	
1	0	0	0	0	0	521	0	0	0	0	
2	0	0	0	0	0	525	0	1	0	0	
3	0	0	0	0	0	526	0	0	0	0	
4	0	0	0	0	0	526	0	0	0	0	
5	0	0	0	0	4	526	0	0	0	0	
6	0	0	0	0	0	526	0	0	0	0	
7	0	0	0	0	0	527	0	0	0	0	
8	0	0	0	0	0	529	0	0	0	0	
9	0	0	0	0	0	530	0	0	0	0	
10	0	0	0	0	0	530	0	1	0	0	
11	0	0	0	0	0	530	1	0	0	0	
12	0	0	0	0	0	529	0	0	0	0	
13	0	0	0	0	4	527	0	0	0	0	
14	0	0	0	0	0	526	0	0	0	0	
15	0	0	0	0	0	524	0	0	0	0	
0	0	0	0	0	0	523	0	0	0	0	
1	0	0	0	0	0	520	0	0	0	0	
2	0	0	0	0	0	520	0	1	0	0	
3	0	0	0	0	0	519	0	0	0	0	
4	0	0	0	0	0	520	0	0	0	0	
5	0	0	0	0	1	519	0	0	0	0	
6	0	0	0	0	0	519	0	0	0	0	
7	0	0	0	0	0	518	0	0	0	0	
8	0	0	0	0	0	517	0	0	0	0	
9	0	0	0	0	0	517	0	0	0	0	
10	0	0	0	0	0	517	0	1	0	0	
11	0	0	0	0	0	519	0	0	0	0	
12	0	0	0	0	0	519	0	0	0	0	
13	0	0	0	0	1	520	0	0	0	0	
14	0	0	0	0	0	520	0	0	0	0	
15	0	0	0	0	0	521	0	0	0	0	
0	0	0	0	0	0	520	0	0	0	0	
1	0	0	0	0	0	519	0	0	0	0	
2	0	0	0	0	0	515	0	1	0	0	
3	0	0	0	0	0	514	0	0	0	0	
4	0	0	0	0	0	513	0	0	0	0	
5	0	0	0	0	1	513	0	0	0	0	
6	0	0	0	0	0	515	0	0	0	0	
7	0	0	0	0	0	515	0	0	0	0	
8	0	0	0	0	0	514	0	0	0	0	
9	0	0	0	0	0	512	0	0	0	0	
10	0	0	0	0	0	511	0	1	0	0	
11	0	0	0	0	0	510	0	0	0	0	
12	0	0	0	0	0	511	0	0	0	0	
13	0	0	0	0	4	512	0	0	0	0	
14	0	0	0	0	0	513	0	0	0	0	
15	0	0	0	0	0	512	0	0	0	0	
0	0	0	0	0	0	510	0	0	0	0	
1	0	0	0	0	0	510	0	0	0	0	
2	0	0	0	0	0	508	0	1	0	0	
3	0	0	0	0	0	504	0	0	0	0	
4	0	0	0	0	0	502	0	0	0	0	
5	0	0	0	0	4	499	0	0	0	0	
6	0	0	0	0	0	498	0	0	0	0	
7	0	0	0	0	0	497	0	0	0	0	
8	0	0	0	0	0	495	0	0	0	0	
9	0	0	0	0	0	492	0	0	0	0	
10	0	0	0	0	0	490	0	1	0	0	
11	0	0	0	0	0	489	0	0	0	0	
12	0	0	0	0	0	487	0	0	0	0	
13	0	0	0	0	4	486	0	0	0	0	
14	0	0	0	0	0	486	0	0	0	0	
15	0	0	0	0	0	489	0	0	0	0	
0	0	0	0	0	0	491	0	0	0	0	
1	0	0	0	0	0	491	0	0	0	0	
2	0	0	0	0	0	489	0	1	0	0	
3	0	0	0	0	0	489	0	0	0	0	
4	0	0	0	0	0	488	0	0	0	0	
5	0	0	0	0	4	487	0	0	0	0	
6	0	0	0	0	0	489	0	0	0	0	
7	0	0	0	0	0	489	0	0	0	0	
8	0	0	0	0	0	488	0	0	0	0	
9	0	0	0	0	0	487	0	0	0	0	
10	0	0	0	0	0	485	0	1	0	0	
11	0	0	0	0	0	484	0	0	0	0	
12	0	0	0	0	0	484	0	0	0	0	
13	0	0	0	0	4	484	0	0	0	0	
14	0	0	0	0	0	483	0	0	0	0	
15	0	0	0	0	0	484	0	0	0	0	
0	0	0	0	0	0	486	0	0	0	0	
1	0	0	0	0	0	487	0	0	0	0	
2	0	0	0	0	0	486	0	1	0	0	
3	0	0	0	0	0	486	0	0	0	0	
4	0	0	0	0	0	485	0	0	0	0	
5	0	0	0	0	4	485	0	0	0	0	
6	0	0	0	0	0	486	0	0	0	0	
7	0	0	0	0	0	486	0	0	0	0	
8	0	0	0	0	0	486	0	0	0	0	
9	0	0	0	0	0	486	0	0	0	0	
10	0	0	0	0	0	487	0	1	0	0	
11	0	0	0	0	0	487	0	0	0	0	
12	0	0	0	0	0	489	0	0	0	0	
13	0	0	0	0	4	490	0	0	0	0	
14	0	0	0	0	0	491	0	0	0	0	
15	0	0	0	0	0	490	0	0	0	0	
0	0	0	0	0	0	491	0	0	0	0	
1	0	0	0	0	0	491	0	0	0	0	
2	0	0	0	0	0	488	0	1	0	0	
3	0	0	0	0	0	487	0	0	0	0	
4	0	0	0	0	0	487	0	0	0	0	
5	0	0	0	0	4	489	0	0	0	0	
6	0	0	0	0	0	492	0	0	0	0	
7	0	0	0	0	0	493	0	0	0	0	
8	0	0	0	0	0	493	0	0	0	0	
9	0	0	0	0	0	492	0	0	0	0	
10	0	0	0	0	0	492	0	1	0	0	
11	0	0	0	0	0	492	0	0	0	0	
12	0	0	0	0	0	491	0	0	0	0	
13	0	0	0	0	4	490	0	0	0	0	
14	0	0	0	0	0	489	0	0	0	0	
15	0	0	0	0	0	486	0	0	0	0	
0	0	0	0	0	0	483	0	0	0	0	
1	0	0	0	0	0	481	0	0	0	0	
2	0	0	0	0	0	480	0	1	0	0	
3	0	0	0	0	0	481	0	0	0	0	
4	0	0	0	0	0	482	0	0	0	0	
5	0	0	0	0	4	483	0	0	0	0	
6	0	0	0	0	0	482	0	0	0	0	
7	0	0	0	0	0	483	0	0	0	0	
8	0	0	0	0	0	480	0	0	0	0	
9	0	0	0	0	0	480	0	0	0	0	
10	0	0	0	0	0	479	0	1	0	0	
11	0	0	0	0	0	476	0	0	0	0	
12	0	0	0	0	0	471	0	0	0	0	
13	0	0	0	0	4	467	0	0	0	0	
14	0	0	0	0	0	464	0	0	0	0	
15	0	0	0	0	0	464	0	0	0	0	
0	0	0	0	0	0	466	0	0	0	0	
1	0	0	0	0	0	470	0	0	0	0	
2	0	0	0	0	0	478	0	1	0	0	
3	0	0	0	0	0	484	0	0	0	0	
4	0	0	0	0	0	491	0	0	0	0	
5	0	0	0	0	2	499	0	0	0	0	
6	0	0	0	0	0	509	0	0	0	0	
7	0	0	0	0	0	524	0	0	0	0	
8	0	0	0	0	0	540	0	0	0	0	
9	0	0	0	0	0	554	0	0	0	0	
10	0	0	0	0	0	566	0	1	0	0	
11	0	0	0	0	0	577	1	0	0	0	
12	0	0	0	0	0	590	0	0	0	0	
13	0	0	0	0	2	604	0	0	0	0	
14	0	0	0	0	0	620	0	0	0	0	
15	0	0	0	0	0	638	0	0	0	0	
0	0	0	0	0	0	655	1	0	0	0	
1	0	0	0	0	0	671	1	0	0	0	
2	0	0	0	0	0	688	1	1	0	0	
3	0	0	0	0	0	704	1	0	0	0	
4	0	0	0	0	0	726	1	0	0	0	
5	0	0	0	0	2	748	1	0	0	0	
6	0	0	0	0	0	770	1	0	0	0	
7	0	0	0	0	0	792	1	0	0	0	
8	0	0	0	0	0	814	1	0	0	0	
9	0	0	0	0	0	837	2	0	0	0	
10	0	0	0	0	0	862	2	1	0	0	
11	0	0	0	0	0	883	2	0	0	0	
12	0	0	0	0	0	899	2	0	0	0	
13	0	0	0	0	4	911	2	0	0	0	
14	0	0	0	0	0	920	2	0	0	0	
15	0	0	0	0	0	927	2	0	0	0	
0	0	0	0	0	0	927	2	0	0	0	
1	0	0	0	0	0	918	2	0	0	0	
2	0	0	0	0	0	898	2	1	0	0	
3	0	0	0	0	0	870	2	0	0	0	
4	0	0	0	0	0	834	2	0	0	0	
5	0	0	0	0	4	793	1	0	0	0	
6	0	0	0	0	0	748	1	0	0	0	
7	0	0	0	0	0	701	1	0	0	0	
8	0	0	0	0	0	654	1	0	0	0	
9	0	0	0	0	0	611	0	0	0	0	
10	0	0	0	0	0	573	0	1	0	0	
11	0	0	0	0	0	540	0	0	0	0	
12	0	0	0	0	1	513	0	0	0	0	
13	0	0	0	0	4	488	0	0	0	0	
14	0	0	0	0	0	463	0	0	0	0	
15	0	0	0	0	0	443	0	0	0	0	
0	0	0	0	0	0	428	0	0	0	0	
1	0	0	0	0	0	414	0	0	0	0	
2	0	0	0	0	0	402	0	1	0	0	
3	0	0	0	0	0	392	0	0	0	0	
4	0	0	0	0	0	383	0	0	0	0	
5	0	0	0	0	4	372	0	0	0	0	
6	0	0	0	0	0	362	0	0	0	0	
7	0	0	0	0	0	351	0	0	0	0	
8	0	0	0	0	0	342	0	0	0	0	
9	0	0	0	0	0	334	0	0	0	0	
10	0	0	0	0	0	326	0	1	0	0	
11	0	0	0	0	0	317	0	0	0	0	
12	0	0	0	0	0	308	0	0	0	0	
13	0	0	0	0	4	300	0	0	0	0	
14	0	0	0	0	0	291	0	0	0	0	
15	0	0	0	0	0	284	0	0	0	0	
0	0	0	0	0	0	278	0	0	0	0	
1	0	0	0	0	0	273	0	0	0	0	
2	0	0	0	0	0	268	0	1	0	0	
3	0	0	0	0	0	264	0	0	0	0	
4	0	0	0	0	0	265	0	0	0	0	
5	0	0	0	0	4	265	0	0	0	0	
6	0	0	0	0	0	270	0	0	0	0	
7	0	0	0	0	0	278	0	0	0	0	
8	0	0	0	0	0	285	0	0	0	0	
9	0	0	0	0	0	293	0	0	0	0	
10	0	0	0	0	0	299	0	1	0	0	
11	0	0	0	0	0	306	0	0	0	0	
12	0	0	0	0	0	313	0	0	0	0	
13	0	0	0	0	4	321	0	0	0	0	
14	0	0	0	0	0	329	0	0	0	0	
15	0	0	0	0	0	336	0	0	0	0	
0	0	0	0	0	0	343	0	0	0	0	
1	0	0	0	0	0	351	0	0	0	0	
2	0	0	0	0	0	357	0	1	0	0	
3	0	0	0	0	0	363	0	0	0	0	
4	0	0	0	0	0	368	0	0	0	0	
5	0	0	0	0	4	373	0	0	0	0	
6	0	0	0	0	0	378	0	0	0	0	
7	0	0	0	0	0	383	0	0	0	0	
8	0	0	0	0	0	387	0	0	0	0	
9	0	0	0	0	0	392	0	0	0	0	
10	0	0	0	0	0	396	0	1	0	0	
11	0	0	0	0	0	402	0	0	0	0	
12	0	0	0	0	1	409	0	0	0	0	
13	0	0	0	0	4	414	0	0	0	0	
14	0	0	0	0	0	418	0	0	0	0	
15	0	0	0	0	0	422	0	0	0	0	
0	0	0	0	0	0	424	0	0	0	0	
1	0	0	0	0	0	427	0	0	0	0	
2	0	0	0	0	0	430	0	1	0	0	
3	0	0	0	0	0	432	0	0	0	0	
4	0	0	0	0	0	434	0	0	0	0	
5	0	0	0	0	4	434	0	0	0	0	
6	0	0	0	0	0	435	0	0	0	0	
7	0	0	0	0	0	436	0	0	0	0	
8	0	0	0	0	0	439	0	0	0	0	
9	0	0	0	0	0	441	0	0	0	0	
10	0	0	0	0	0	443	0	1	0	0	
11	0	0	0	0	0	443	0	0	0	0	
12	0	0	0	0	0	443	0	0	0	0	
13	0	0	0	0	4	444	0	0	0	0	
14	0	0	0	0	0	447	0	0	0	0	
15	0	0	0	0	0	448	0	0	0	0	
0	0	0	0	0	0	450	0	0	0	0	
1	0	0	0	0	0	454	0	0	0	0	
2	0	0	0	0	0	457	0	1	0	0	
3	0	0	0	0	0	462	0	0	0	0	
4	0	0	0	0	0	465	0	0	0	0	
5	0	0	0	0	1	468	0	0	0	0	
6	0	0	0	0	0	471	0	0	0	0	
7	0	0	0	0	0	474	0	0	0	0	
8	0	0	0	0	0	477	0	0	0	0	
9	0	0	0	0	0	480	0	0	0	0	
10	0	0	0	0	0	482	0	1	0	0	
11	0	0	0	0	0	483	0	0	0	0	
12	0	0	0	0	0	486	0	0	0	0	
13	0	0	0	0	1	487	0	0	0	0	
14	0	0	0	0	0	489	0	0	0	0	
15	0	0	0	0	0	492	0	0	0	0	
0	0	0	0	0	0	493	0	0	0	0	
1	0	0	0	0	0	493	0	0	0	0	
2	0	0	0	0	0	493	0	1	0	0	
3	0	0	0	0	0	494	0	0	0	0	
4	0	0	0	0	0	494	0	0	0	0	
5	0	0	0	0	1	497	0	0	0	0	
6	0	0	0	0	0	499	0	0	0	0	
7	0	0	0	0	0	499	0	0	0	0	
8	0	0	0	0	0	500	0	0	0	0	
9	0	0	0	0	0	501	0	0	0	0	
10	0	0	0	0	0	503	0	1	0	0	
11	0	0	0	0	0	504	1	0	0	0	
12	0	0	0	0	0	504	0	0	0	0	
13	0	0	0	0	4	506	0	0	0	0	
14	0	0	0	0	0	509	0	0	0	0	
15	0	0	0	0	0	510	0	0	0	0	
0	0	0	0	0	0	511	0	0	0	0	
1	0	0	0	0	0	514	0	0	0	0	
2	0	0	0	0	0	516	0	1	0	0	
3	0	0	0	0	0	517	0	0	0	0	
4	0	0	0	0	0	517	0	0	0	0	
5	0	0	0	0	4	516	0	0	0	0	
6	0	0	0	0	0	515	0	0	0	0	
7	0	0	0	0	0	514	0	0	0	0	
8	0	0	0	0	0	511	0	0	0	0	
9	0	0	0	0	0	510	0	0	0	0	
10	0	0	0	0	0	512	0	1	0	0	
11	0	0	0	0	0	513	0	0	0	0	
12	0	0	0	0	0	513	0	0	0	0	
13	0	0	0	0	4	515	0	0	0	0	
14	0	0	0	0	0	518	0	0	0	0	
15	0	0	0	0	0	521	0	0	0	0	
0	0	0	0	0	0	523	0	0	0	0	
1	0	0	0	0	0	523	0	0	0	0	
2	0	0	0	0	0	525	0	1	0	0	
3	0	0	0	0	0	527	0	0	0	0	
4	0	0	0	0	0	531	0	0	0	0	
5	0	0	0	0	4	533	0	0	0	0	
6	0	0	0	0	0	535	0	0	0	0	
7	0	0	0	0	0	537	0	0	0	0	
8	0	0	0	0	0	540	0	0	0	0	
9	0	0	0	0	0	541	0	0	0	0	
10	0	0	0	0	0	542	0	1	0	0	
11	0	0	0	0	0	543	1	0	0	0	
12	0	0	0	0	0	545	0	0	0	0	
13	0	0	0	0	4	547	0	0	0	0	
14	0	0	0	0	0	550	0	0	0	0	
15	0	0	0	0	0	552	0	0	0	0	
0	0	0	0	0	0	553	0	0	0	0	
1	0	0	0	0	0	554	0	0	0	0	
2	0	0	0	0	0	555	0	1	0	0	
3	0	0	0	0	0	555	1	0	0	0	
4	0	0	0	0	0	555	0	0	0	0	
5	0	0	0	0	4	555	0	0	0	0	
6	0	0	0	0	0	553	0	0	0	0	
7	0	0	0	0	0	554	0	0	0	0	
8	0	0	0	0	0	554	0	0	0	0	
9	0	0	0	0	0	556	0	0	0	0	
10	0	0	0	0	0	557	0	1	0	0	
11	0	0	0	0	0	560	1	0	0	0	
12	0	0	0	0	0	562	0	0	0	0	
13	0	0	0	0	4	563	0	0	0	0	
14	0	0	0	0	0	563	0	0	0	0	
15	0	0	0	0	0	564	0	0	0	0	
0	0	0	0	0	0	568	0	0	0	0	
1	0	0	0	0	0	571	0	0	0	0	
2	0	0	0	0	0	572	0	1	0	0	
3	0	0	0	0	0	574	1	0	0	0	
4	0	0	0	0	0	576	0	0	0	0	
5	0	0	0	0	4	576	0	0	0	0	
6	0	0	0	0	0	577	0	0	0	0	
7	0	0	0	0	0	575	0	0	0	0	
8	0	0	0	0	0	573	0	0	0	0	
9	0	0	0	0	0	572	0	0	0	0	
10	0	0	0	0	0	574	0	1	0	0	
11	0	0	0	0	0	575	1	0	0	0	
12	0	0	0	0	0	575	0	0	0	0	
13	0	0	0	0	4	577	0	0	0	0	
14	0	0	0	0	0	579	0	0	0	0	
15	0	0	0	0	0	581	0	0	0	0	
0	0	0	0	0	0	581	0	0	0	0	
1	0	0	0	0	0	579	0	0	0	0	
2	0	0	0	0	0	578	0	1	0	0	
3	0	0	0	0	0	579	1	0	0	0	
4	0	0	0	0	0	581	0	0	0	0	
5	0	0	0	0	4	583	0	0	0	0	
6	0	0	0	0	0	582	0	0	0	0	
7	0	0	0	0	0	580	0	0	0	0	
8	0	0	0	0	0	578	0	0	0	0	
9	0	0	0	0	0	577	0	0	0	0	
10	0	0	0	0	0	580	0	1	0	0	
11	0	0	0	0	0	583	1	0	0	0	
12	0	0	0	0	0	585	0	0	0	0	
13	0	0	0	0	2	587	0	0	0	0	
14	0	0	0	0	0	588	0	0	0	0	
15	0	0	0	0	0	589	0	0	0	0	
0	0	0	0	0	0	590	0	0	0	0	
1	0	0	0	0	0	591	0	0	0	0	
2	0	0	0	0	0	591	0	1	0	0	
3	0	0	0	0	0	591	1	0	0	0	
4	0	0	0	0	0	591	0	0	0	0	
5	0	0	0	0	2	591	0	0	0	0	
6	0	0	0	0	0	591	0	0	0	0	
7	0	0	0	0	0	591	0	0	0	0	
8	0	0	0	0	0	592	0	0	0	0	
9	0	0	0	0	0	594	0	0	0	0	
10	0	0	0	0	0	594	0	1	0	0	
11	0	0	0	0	0	594	1	0	0	0	
12	0	0	0	0	0	596	0	0	0	0	
13	0	0	0	0	2	598	0	0	0	0	
14	0	0	0	0	0	598	0	0	0	0	
15	0	0	0	0	0	598	0	0	0	0	
0	0	0	0	0	0	599	0	0	0	0	
1	0	0	0	0	0	600	0	0	0	0	
2	0	0	0	0	0	600	0	1	0	0	
3	0	0	0	0	0	600	1	0	0	0	
4	0	0	0	0	1	598	0	0	0	0	
5	0	0	0	0	4	594	0	0	0	0	
6	0	0	0	0	0	592	0	0	0	0	
7	0	0	0	0	0	593	0	0	0	0	
8	0	0	0	0	0	594	0	0	0	0	
9	0	0	0	0	0	594	0	0	0	0	
10	0	0	0	0	0	594	0	1	0	0	
11	0	0	0	0	0	594	1	0	0	0	
12	0	0	0	0	0	595	0	0	0	0	
13	0	0	0	0	4	595	0	0	0	0	
14	0	0	0	0	0	595	0	0	0	0	
15	0	0	0	0	0	595	0	0	0	0	
0	0	0	0	0	0	594	0	0	0	0	
1	0	0	0	0	0	593	0	0	0	0	
2	0	0	0	0	0	594	0	1	0	0	
3	0	0	0	0	0	595	1	0	0	0	
4	0	0	0	0	0	595	0	0	0	0	
5	0	0	0	0	4	595	0	0	0	0	
6	0	0	0	0	0	596	0	0	0	0	
7	0	0	0	0	0	595	0	0	0	0	
8	0	0	0	0	0	594	0	0	0	0	
9	0	0	0	0	0	591	0	0	0	0	
10	0	0	0	0	0	589	0	1	0	0	
11	0	0	0	0	0	590	1	0	0	0	
12	0	0	0	0	0	593	0	0	0	0	
13	0	0	0	0	4	596	0	0	0	0	
14	0	0	0	0	0	597	0	0	0	0	
15	0	0	0	0	0	597	0	0	0	0	
0	0	0	0	0	0	598	0	0	0	0	
1	0	0	0	0	0	598	0	0	0	0	
2	0	0	0	0	0	598	0	1	0	0	
3	0	0	0	0	0	599	1	0	0	0	
4	0	0	0	0	0	600	0	0	0	0	
5	0	0	0	0	4	601	0	0	0	0	
6	0	0	0	0	0	602	0	0	0	0	
7	0	0	0	0	0	603	0	0	0	0	
8	0	0	0	0	0	604	0	0	0	0	
9	0	0	0	0	0	604	0	0	0	0	
10	0	0	0	0	0	603	0	1	0	0	
11	0	0	0	0	0	602	1	0	0	0	
12	0	0	0	0	0	602	0	0	0	0	
13	0	0	0	0	4	600	0	0	0	0	
14	0	0	0	0	0	598	0	0	0	0	
15	0	0	0	0	0	595	0	0	0	0	
0	0	0	0	0	0	593	0	0	0	0	
1	0	0	0	0	0	590	0	0	0	0	
2	0	0	0	0	0	588	0	1	0	0	
3	0	0	0	0	0	587	1	0	0	0	
4	0	0	0	0	0	586	0	0	0	0	
5	0	0	0	0	4	584	0	0	0	0	
6	0	0	0	0	0	581	0	0	0	0	
7	0	0	0	0	0	577	0	0	0	0	
8	0	0	0	0	0	576	0	0	0	0	
9	0	0	0	0	0	575	0	0	0	0	
10	0	0	0	0	0	574	0	1	0	0	
11	0	0	0	0	0	574	1	0	0	0	
12	0	0	0	0	0	576	0	0	0	0	
13	0	0	0	0	4	578	0	0	0	0	
14	0	0	0	0	0	577	0	0	0	0	
15	0	0	0	0	0	575	0	0	0	0	
0	0	0	0	0	0	571	0	0	0	0	
1	0	0	0	0	0	568	0	0	0	0	
2	0	0	0	0	0	567	0	1	0	0	
3	0	0	0	0	0	564	1	0	0	0	
4	0	0	0	0	0	562	0	0	0	0	
5	0	0	0	0	4	559	0	0	0	0	
6	0	0	0	0	0	556	0	0	0	0	
7	0	0	0	0	0	552	0	0	0	0	
8	0	0	0	0	0	550	0	0	0	0	
9	0	0	0	0	0	547	0	0	0	0	
10	0	0	0	0	0	546	0	1	0	0	
11	0	0	0	0	0	543	1	0	0	0	
12	0	0	0	0	0	540	0	0	0	0	
13	0	0	0	0	4	536	0	0	0	0	
14	0	0	0	0	0	532	0	0	0	0	
15	0	0	0	0	0	529	0	0	0	0	
0	0	0	0	0	0	527	0	0	0	0	
1	0	0	0	0	0	525	0	0	0	0	
2	0	0	0	0	0	522	0	1	0	0	
3	0	0	0	0	0	518	0	0	0	0	
4	0	0	0	0	1	514	0	0	0	0	
5	0	0	0	0	4	510	0	0	0	0	
6	0	0	0	0	0	505	0	0	0	0	
7	0	0	0	0	0	499	0	0	0	0	
8	0	0	0	0	0	494	0	0	0	0	
9	0	0	0	0	0	488	0	0	0	0	
10	0	0	0	0	0	485	0	1	0	0	
11	0	0	0	0	0	483	0	0	0	0	
12	0	0	0	0	0	481	0	0	0	0	
13	0	0	0	0	1	479	0	0	0	0	
14	0	0	0	0	0	478	0	0	0	0	
15	0	0	0	0	0	476	0	0	0	0	
0	0	0	0	0	0	473	0	0	0	0	
1	0	0	0	0	0	469	0	0	0	0	
2	0	0	0	0	0	465	0	1	0	0	
3	0	0	0	0	0	463	0	0	0	0	
4	0	0	0	0	0	462	0	0	0	0	
5	0	0	0	0	1	460	0	0	0	0	
6	0	0	0	0	0	457	0	0	0	0	
7	0	0	0	0	0	455	0	0	0	0	
8	0	0	0	0	0	454	0	0	0	0	
9	0	0	0	0	0	453	0	0	0	0	
10	0	0	0	0	0	452	0	1	0	0	
11	0	0	0	0	0	451	0	0	0	0	
12	0	0	0	0	0	450	0	0	0	0	
13	0	0	0	0	1	447	0	0	0	0	
14	0	0	0	0	0	444	0	0	0	0	
15	0	0	0	0	0	442	0	0	0	0	
0	0	0	0	0	0	441	0	0	0	0	
1	0	0	0	0	0	440	0	0	0	0	
2	0	0	0	0	0	440	0	1	0	0	
3	0	0	0	0	0	439	0	0	0	0	
4	0	0	0	0	0	439	0	0	0	0	
5	0	0	0	0	4	438	0	0	0	0	
6	0	0	0	0	0	439	0	0	0	0	
7	0	0	0	0	0	440	0	0	0	0	
8	0	0	0	0	0	442	0	0	0	0	
9	0	0	0	0	0	442	0	0	0	0	
10	0	0	0	0	0	442	0	1	0	0	
11	0	0	0	0	0	442	0	0	0	0	
12	0	0	0	0	0	441	0	0	0	0	
13	0	0	0	0	4	440	0	0	0	0	
14	0	0	0	0	0	439	0	0	0	0	
15	0	0	0	0	0	436	0	0	0	0	
0	0	0	0	0	0	434	0	0	0	0	
1	0	0	0	0	0	434	0	0	0	0	
2	0	0	0	0	0	433	0	1	0	0	
3	0	0	0	0	0	433	0	0	0	0	
4	0	0	0	0	1	432	0	0	0	0	
5	0	0	0	0	4	429	0	0	0	0	
6	0	0	0	0	0	429	0	0	0	0	
7	0	0	0	0	0	430	0	0	0	0	
8	0	0	0	0	0	432	0	0	0	0	
9	0	0	0	0	0	434	0	0	0	0	
10	0	0	0	0	0	435	0	1	0	0	
11	0	0	0	0	0	439	0	0	0	0	
12	0	0	0	0	0	440	0	0	0	0	
13	0	0	0	0	4	440	0	0	0	0	
14	0	0	0	0	0	439	0	0	0	0	
15	0	0	0	0	0	440	0	0	0	0	
0	0	0	0	0	0	442	0	0	0	0	
1	0	0	0	0	0	445	0	0	0	0	
2	0	0	0	0	0	446	0	1	0	0	
3	0	0	0	0	0	446	0	0	0	0	
4	0	0	0	0	0	447	0	0	0	0	
5	0	0	0	0	4	447	0	0	0	0	
6	0	0	0	0	0	449	0	0	0	0	
7	0	0	0	0	0	453	0	0	0	0	
8	0	0	0	0	0	456	0	0	0	0	
9	0	0	0	0	0	460	0	0	0	0	
10	0	0	0	0	0	464	0	1	0	0	
11	0	0	0	0	0	466	0	0	0	0	
12	0	0	0	0	0	467	0	0	0	0	
13	0	0	0	0	4	470	0	0	0	0	
14	0	0	0	0	0	473	0	0	0	0	
15	0	0	0	0	0	476	0	0	0	0	
0	0	0	0	0	0	478	0	0	0	0	
1	0	0	0	0	0	480	0	0	0	0	
2	0	0	0	0	0	484	0	1	0	0	
3	0	0	0	0	0	487	0	0	0	0	
4	0	0	0	0	0	490	0	0	0	0	
5	0	0	0	0	4	492	0	0	0	0	
6	0	0	0	0	0	495	0	0	0	0	
7	0	0	0	0	0	497	0	0	0	0	
8	0	0	0	0	0	499	0	0	0	0	
9	0	0	0	0	0	501	0	0	0	0	
10	0	0	0	0	0	504	0	1	0	0	
11	0	0	0	0	0	508	0	0	0	0	
12	0	0	0	0	0	511	0	0	0	0	
13	0	0	0	0	4	514	0	0	0	0	
14	0	0	0	0	0	515	0	0	0	0	
15	0	0	0	0	0	513	0	0	0	0	
0	0	0	0	0	0	514	0	0	0	0	
1	0	0	0	0	0	518	0	0	0	0	
2	0	0	0	0	0	521	0	1	0	0	
3	0	0	0	0	0	524	1	0	0	0	
4	0	0	0	0	0	527	0	0	0	0	
5	0	0	0	0	4	531	0	0	0	0	
6	0	0	0	0	0	533	0	0	0	0	
7	0	0	0	0	0	535	0	0	0	0	
8	0	0	0	0	0	536	0	0	0	0	
9	0	0	0	0	0	539	0	0	0	0	
10	0	0	0	0	0	540	0	1	0	0	
11	0	0	0	0	0	541	1	0	0	0	
12	0	0	0	0	0	542	0	0	0	0	
13	0	0	0	0	4	541	0	0	0	0	
14	0	0	0	0	0	539	0	0	0	0	
15	0	0	0	0	0	537	0	0	0	0	
0	0	0	0	0	0	535	0	0	0	0	
1	0	0	0	0	0	534	0	0	0	0	
2	0	0	0	0	0	534	0	1	0	0	
3	0	0	0	0	0	534	1	0	0	0	
4	0	0	0	0	0	533	0	0	0	0	
5	0	0	0	0	4	533	0	0	0	0	
6	0	0	0	0	0	532	0	0	0	0	
7	0	0	0	0	0	530	0	0	0	0	
8	0	0	0	0	0	528	0	0	0	0	
9	0	0	0	0	0	528	0	0	0	0	
10	0	0	0	0	0	528	0	1	0	0	
11	0	0	0	0	0	530	0	0	0	0	
12	0	0	0	0	0	531	0	0	0	0	
13	0	0	0	0	2	531	0	0	0	0	
14	0	0	0	0	0	533	0	0	0	0	
15	0	0	0	0	0	535	0	0	0	0	
0	0	0	0	0	0	536	0	0	0	0	
1	0	0	0	0	0	536	0	0	0	0	
2	0	0	0	0	0	536	0	1	0	0	
3	0	0	0	0	0	534	0	0	0	0	
4	0	0	0	0	0	534	0	0	0	0	
5	0	0	0	0	2	533	0	0	0	0	
6	0	0	0	0	0	531	0	0	0	0	
7	0	0	0	0	0	530	0	0	0	0	
8	0	0	0	0	0	530	0	0	0	0	
9	0	0	0	0	0	532	0	0	0	0	
10	0	0	0	0	0	533	0	1	0	0	
11	0	0	0	0	0	534	0	0	0	0	
12	0	0	0	0	0	534	0	0	0	0	
13	0	0	0	0	4	535	0	0	0	0	
14	0	0	0	0	0	537	0	0	0	0	
15	0	0	0	0	0	541	0	0	0	0	
0	0	0	0	0	0	543	0	0	0	0	
1	0	0	0	0	0	544	0	0	0	0	
2	0	0	0	0	0	543	0	1	0	0	
3	0	0	0	0	0	543	1	0	0	0	
4	0	0	0	0	0	542	0	0	0	0	
5	0	0	0	0	4	543	0	0	0	0	
6	0	0	0	0	0	546	0	0	0	0	
7	0	0	0	0	0	548	0	0	0	0	
8	0	0	0	0	0	548	0	0	0	0	
9	0	0	0	0	0	548	0	0	0	0	
10	0	0	0	0	0	549	0	1	0	0	
11	0	0	0	0	0	549	1	0	0	0	
12	0	0	0	0	0	548	0	0	0	0	
13	0	0	0	0	4	545	0	0	0	0	
14	0	0	0	0	0	544	0	0	0	0	
15	0	0	0	0	0	545	0	0	0	0	
0	0	0	0	0	0	545	0	0	0	0	
1	0	0	0	0	0	546	0	0	0	0	
2	0	0	0	0	0	545	0	1	0	0	
3	0	0	0	0	0	546	1	0	0	0	
4	0	0	0	0	0	547	0	0	0	0	
5	0	0	0	0	4	547	0	0	0	0	
6	0	0	0	0	0	547	0	0	0	0	
7	0	0	0	0	0	548	0	0	0	0	
8	0	0	0	0	0	547	0	0	0	0	
9	0	0	0	0	0	547	0	0	0	0	
10	0	0	0	0	0	547	0	1	0	0	
11	0	0	0	0	0	548	1	0	0	0	
12	0	0	0	0	0	549	0	0	0	0	
13	0	0	0	0	4	550	0	0	0	0	
14	0	0	0	0	0	549	0	0	0	0	
15	0	0	0	0	0	546	0	0	0	0	
0	0	0	0	0	0	543	0	0	0	0	
1	0	0	0	0	0	542	0	0	0	0	
2	0	0	0	0	0	541	0	1	0	0	
3	0	0	0	0	0	540	1	0	0	0	
4	0	0	0	0	0	539	0	0	0	0	
5	0	0	0	0	4	536	0	0	0	0	
6	0	0	0	0	0	533	0	0	0	0	
7	0	0	0	0	0	529	0	0	0	0	
8	0	0	0	0	0	525	0	0	0	0	
9	0	0	0	0	0	521	0	0	0	0	
10	0	0	0	0	0	516	0	1	0	0	
11	0	0	0	0	0	511	0	0	0	0	
12	0	0	0	0	0	508	0	0	0	0	
13	0	0	0	0	4	505	0	0	0	0	
14	0	0	0	0	0	503	0	0	0	0	
15	0	0	0	0	0	500	0	0	0	0	
0	0	0	0	0	0	498	0	0	0	0	
1	0	0	0	0	0	497	0	0	0	0	
2	0	0	0	0	0	497	0	1	0	0	
3	0	0	0	0	0	496	0	0	0	0	
4	0	0	0	0	0	497	0	0	0	0	
5	0	0	0	0	4	499	0	0	0	0	
6	0	0	0	0	0	502	0	0	0	0	
7	0	0	0	0	0	505	0	0	0	0	
8	0	0	0	0	0	508	0	0	0	0	
9	0	0	0	0	0	512	0	0	0	0	
10	0	0	0	0	0	514	0	1	0	0	
11	0	0	0	0	0	518	1	0	0	0	
12	0	0	0	0	0	519	0	0	0	0	
13	0	0	0	0	4	520	0	0	0	0	
14	0	0	0	0	0	519	0	0	0	0	
15	0	0	0	0	0	516	0	0	0	0	
0	0	0	0	0	0	515	0	0	0	0	
1	0	0	0	0	0	515	0	0	0	0	
2	0	0	0	0	0	517	0	1	0	0	
3	0	0	0	0	0	521	0	0	0	0	
4	0	0	0	0	0	526	0	0	0	0	
5	0	0	0	0	4	527	0	0	0	0	
6	0	0	0	0	0	530	0	0	0	0	
7	0	0	0	0	0	531	0	0	0	0	
8	0	0	0	0	0	531	0	0	0	0	
9	0	0	0	0	0	531	0	0	0	0	
10	0	0	0	0	0	532	0	1	0	0	
11	0	0	0	0	0	534	1	0	0	0	
12	0	0	0	0	0	535	0	0	0	0	
13	0	0	0	0	4	536	0	0	0	0	
14	0	0	0	0	0	536	0	0	0	0	
15	0	0	0	0	0	536	0	0	0	0	
0	0	0	0	0	0	534	0	0	0	0	
1	0	0	0	0	0	535	0	0	0	0	
2	0	0	0	0	0	536	0	1	0	0	
3	0	0	0	0	0	540	0	0	0	0	
4	0	0	0	0	0	543	0	0	0	0	
5	0	0	0	0	1	544	0	0	0	0	
6	0	0	0	0	0	546	0	0	0	0	
7	0	0	0	0	0	546	0	0	0	0	
8	0	0	0	0	0	546	0	0	0	0	
9	0	0	0	0	0	548	0	0	0	0	
10	0	0	0	0	0	551	0	1	0	0	
11	0	0	0	0	0	553	0	0	0	0	
12	0	0	0	0	0	555	0	0	0	0	
13	0	0	0	0	1	556	0	0	0	0	
14	0	0	0	0	0	557	0	0	0	0	
15	0	0	0	0	0	559	0	0	0	0	
0	0	0	0	0	0	562	0	0	0	0	
1	0	0	0	0	0	564	0	0	0	0	
2	0	0	0	0	0	568	0	1	0	0	
3	0	0	0	0	0	574	0	0	0	0	
4	0	0	0	0	0	578	0	0	0	0	
5	0	0	0	0	1	583	0	0	0	0	
6	0	0	0	0	0	588	0	0	0	0	
7	0	0	0	0	0	591	0	0	0	0	
8	0	0	0	0	0	594	0	0	0	0	
9	0	0	0	0	0	595	0	0	0	0	
10	0	0	0	0	0	595	0	1	0	0	
11	0	0	0	0	0	595	1	0	0	0	
12	0	0	0	0	0	598	0	0	0	0	
13	0	0	0	0	4	599	0	0	0	0	
14	0	0	0	0	0	600	0	0	0	0	
15	0	0	0	0	0	601	0	0	0	0	
0	0	0	0	0	0	601	0	0	0	0	
1	0	0	0	0	0	601	0	0	0	0	
2	0	0	0	0	0	603	0	1	0	0	
3	0	0	0	0	0	605	1	0	0	0	
4	0	0	0	0	0	606	0	0	0	0	
5	0	0	0	0	4	605	0	0	0	0	
6	0	0	0	0	0	606	0	0	0	0	
7	0	0	0	0	0	609	0	0	0	0	
8	0	0	0	0	0	612	0	0	0	0	
9	0	0	0	0	0	616	0	0	0	0	
10	0	0	0	0	0	619	0	1	0	0	
11	0	0	0	0	0	620	1	0	0	0	
12	0	0	0	0	0	622	0	0	0	0	
13	0	0	0	0	4	621	1	0	0	0	
14	0	0	0	0	0	620	1	0	0	0	
15	0	0	0	0	0	621	0	0	0	0	
0	0	0	0	0	0	621	0	0	0	0	
1	0	0	0	0	0	621	0	0	0	0	
2	0	0	0	0	0	623	0	1	0	0	
3	0	0	0	0	0	626	1	0	0	0	
4	0	0	0	0	0	630	0	0	0	0	
5	0	0	0	0	4	632	1	0	0	0	
6	0	0	0	0	0	636	1	0	0	0	
7	0	0	0	0	0	639	0	0	0	0	
8	0	0	0	0	0	643	1	0	0	0	
9	0	0	0	0	0	647	1	0	0	0	
10	0	0	0	0	0	651	1	1	0	0	
11	0	0	0	0	0	656	1	0	0	0	
12	0	0	0	0	0	659	1	0	0	0	
13	0	0	0	0	4	660	1	0	0	0	
14	0	0	0	0	0	661	1	0	0	0	
15	0	0	0	0	0	664	1	0	0	0	
0	0	0	0	0	0	669	1	0	0	0	
1	0	0	0	0	0	673	1	0	0	0	
2	0	0	0	0	0	678	1	1	0	0	
3	0	0	0	0	0	682	1	0	0	0	
4	0	0	0	0	0	685	1	0	0	0	
5	0	0	0	0	4	686	1	0	0	0	
6	0	0	0	0	0	686	1	0	0	0	
7	0	0	0	0	0	685	1	0	0	0	
8	0	0	0	0	0	688	1	0	0	0	
9	0	0	0	0	0	687	1	0	0	0	
10	0	0	0	0	0	683	1	1	0	0	
11	0	0	0	0	0	680	1	0	0	0	
12	0	0	0	0	0	677	1	0	0	0	
13	0	0	0	0	4	672	1	0	0	0	
14	0	0	0	0	0	667	1	0	0	0	
15	0	0	0	0	0	659	0	0	0	0	
0	0	0	0	0	0	652	1	0	0	0	
1	0	0	0	0	0	645	1	0	0	0	
2	0	0	0	0	0	636	1	1	0	0	
3	0	0	0	0	0	627	1	0	0	0	
4	0	0	0	0	0	619	1	0	0	0	
5	0	0	0	0	4	609	0	0	0	0	
6	0	0	0	0	0	602	0	0	0	0	
7	0	0	0	0	0	596	0	0	0	0	
8	0	0	0	0	0	590	0	0	0	0	
9	0	0	0	0	0	584	0	0	0	0	
10	0	0	0	0	0	580	0	1	0	0	
11	0	0	0	0	0	575	1	0	0	0	
12	0	0	0	0	1	569	0	0	0	0	
13	0	0	0	0	4	563	0	0	0	0	
14	0	0	0	0	0	556	0	0	0	0	
15	0	0	0	0	0	552	0	0	0	0	
0	0	0	0	0	0	548	0	0	0	0	
1	0	0	0	0	0	545	0	0	0	0	
2	0	0	0	0	0	540	0	1	0	0	
3	0	0	0	0	0	536	1	0	0	0	
4	0	0	0	0	0	531	0	0	0	0	
5	0	0	0	0	4	525	0	0	0	0	
6	0	0	0	0	0	519	0	0	0	0	
7	0	0	0	0	0	510	0	0	0	0	
8	0	0	0	0	0	502	0	0	0	0	
9	0	0	0	0	0	494	0	0	0	0	
10	0	0	0	0	0	486	0	1	0	0	
11	0	0	0	0	0	479	0	0	0	0	
12	0	0	0	0	0	473	0	0	0	0	
13	0	0	0	0	4	468	0	0	0	0	
14	0	0	0	0	0	465	0	0	0	0	
15	0	0	0	0	0	465	0	0	0	0	
0	0	0	0	0	0	464	0	0	0	0	
1	0	0	0	0	0	464	0	0	0	0	
2	0	0	0	0	0	464	0	1	0	0	
3	0	0	0	0	0	466	0	0	0	0	
4	0	0	0	0	0	468	0	0	0	0	
5	0	0	0	0	2	470	0	0	0	0	
6	0	0	0	0	0	474	0	0	0	0	
7	0	0	0	0	0	480	0	0	0	0	
8	0	0	0	0	0	487	0	0	0	0	
9	0	0	0	0	0	491	0	0	0	0	
10	0	0	0	0	0	493	0	1	0	0	
11	0	0	0	0	0	496	0	0	0	0	
12	0	0	0	0	0	501	0	0	0	0	
13	0	0	0	0	2	506	0	0	0	0	
14	0	0	0	0	0	510	0	0	0	0	
15	0	0	0	0	0	513	0	0	0	0	
0	0	0	0	0	0	517	0	0	0	0	
1	0	0	0	0	0	522	0	0	0	0	
2	0	0	0	0	0	527	0	1	0	0	
3	0	0	0	0	0	530	0	0	0	0	
4	0	0	0	0	0	532	0	0	0	0	
5	0	0	0	0	2	535	0	0	0	0	
6	0	0	0	0	0	537	0	0	0	0	
7	0	0	0	0	0	539	0	0	0	0	
8	0	0	0	0	0	540	0	0	0	0	
9	0	0	0	0	0	540	0	0	0	0	
10	0	0	0	0	0	540	0	1	0	0	
11	0	0	0	0	0	539	1	0	0	0	
12	0	0	0	0	0	540	0	0	0	0	
13	0	0	0	0	4	540	0	0	0	0	
14	0	0	0	0	0	540	0	0	0	0	
15	0	0	0	0	0	539	0	0	0	0	
0	0	0	0	0	0	537	0	0	0	0	
1	0	0	0	0	0	536	0	0	0	0	
2	0	0	0	0	0	535	0	1	0	0	
3	0	0	0	0	0	533	1	0	0	0	
4	0	0	0	0	0	534	0	0	0	0	
5	0	0	0	0	4	535	0	0	0	0	
6	0	0	0	0	0	536	0	0	0	0	
7	0	0	0	0	0	535	0	0	0	0	
8	0	0	0	0	0	534	0	0	0	0	
9	0	0	0	0	0	534	0	0	0	0	
10	0	0	0	0	0	534	0	1	0	0	
11	0	0	0	0	0	533	0	0	0	0	
12	0	0	0	0	1	533	0	0	0	0	
13	0	0	0	0	4	532	0	0	0	0	
14	0	0	0	0	0	527	0	0	0	0	
15	0	0	0	0	0	522	0	0	0	0	
0	0	0	0	0	0	519	0	0	0	0	
1	0	0	0	0	0	518	0	0	0	0	
2	0	0	0	0	0	518	0	1	0	0	
3	0	0	0	0	0	519	0	0	0	0	
4	0	0	0	0	0	518	0	0	0	0	
5	0	0	0	0	4	515	0	0	0	0	
6	0	0	0	0	0	512	0	0	0	0	
7	0	0	0	0	0	510	0	0	0	0	
8	0	0	0	0	0	508	0	0	0	0	
9	0	0	0	0	0	504	0	0	0	0	
10	0	0	0	0	0	504	0	1	0	0	
11	0	0	0	0	0	503	0	0	0	0	
12	0	0	0	0	0	501	0	0	0	0	
13	0	0	0	0	4	498	0	0	0	0	
14	0	0	0	0	0	495	0	0	0	0	
15	0	0	0	0	0	493	0	0	0	0	
0	0	0	0	0	0	493	0	0	0	0	
1	0	0	0	0	0	494	0	0	0	0	
2	0	0	0	0	0	499	0	1	0	0	
3	0	0	0	0	0	504	1	0	0	0	
4	0	0	0	0	0	507	0	0	0	0	
5	0	0	0	0	4	508	0	0	0	0	
6	0	0	0	0	0	505	0	0	0	0	
7	0	0	0	0	0	503	0	0	0	0	
8	0	0	0	0	0	500	0	0	0	0	
9	0	0	0	0	0	498	0	0	0	0	
10	0	0	0	0	0	496	0	1	0	0	
11	0	0	0	0	0	493	0	0	0	0	
12	0	0	0	0	0	492	0	0	0	0	
13	0	0	0	0	4	491	0	0	0	0	
14	0	0	0	0	0	491	0	0	0	0	
15	0	0	0	0	0	494	0	0	0	0	
0	0	0	0	0	0	498	0	0	0	0	
1	0	0	0	0	0	502	0	0	0	0	
2	0	0	0	0	0	509	0	1	0	0	
3	0	0	0	0	0	519	1	0	0	0	
4	0	0	0	0	0	529	0	0	0	0	
5	0	0	0	0	4	538	0	0	0	0	
6	0	0	0	0	0	546	0	0	0	0	
7	0	0	0	0	0	554	0	0	0	0	
8	0	0	0	0	0	562	0	0	0	0	
9	0	0	0	0	0	572	0	0	0	0	
10	0	0	0	0	0	583	0	1	0	0	
11	0	0	0	0	0	596	1	0	0	0	
12	0	0	0	0	0	611	0	0	0	0	
13	0	0	0	0	4	630	1	0	0	0	
14	0	0	0	0	0	647	1	0	0	0	
15	0	0	0	0	0	665	0	0	0	0	
0	0	0	0	0	0	684	1	0	0	0	
1	0	0	0	0	0	707	1	0	0	0	
2	0	0	0	0	0	732	1	1	0	0	
3	0	0	0	0	0	756	2	0	0	0	
4	0	0	0	0	0	780	1	0	0	0	
5	0	0	0	0	4	804	1	0	0	0	
6	0	0	0	0	0	828	1	0	0	0	
7	0	0	0	0	0	852	1	0	0	0	
8	0	0	0	0	0	874	2	0	0	0	
9	0	0	0	0	0	892	2	0	0	0	
10	0	0	0	0	0	909	2	1	0	0	
11	0	0	0	0	0	924	3	0	0	0	
12	0	0	0	0	0	938	2	0	0	0	
13	0	0	0	0	4	949	2	0	0	0	
14	0	0	0	0	0	950	2	0	0	0	
15	0	0	0	0	0	940	2	0	0	0	
0	0	0	0	0	0	915	2	0	0	0	
1	0	0	0	0	0	883	2	0	0	0	
2	0	0	0	0	0	847	2	1	0	0	
3	0	0	0	0	0	804	1	0	0	0	
4	0	0	0	0	0	753	1	0	0	0	
5	0	0	0	0	1	700	1	0	0	0	
6	0	0	0	0	0	644	1	0	0	0	
7	0	0	0	0	0	591	0	0	0	0	
8	0	0	0	0	0	541	0	0	0	0	
9	0	0	0	0	0	497	0	0	0	0	
10	0	0	0	0	0	458	0	1	0	0	
11	0	0	0	0	0	425	0	0	0	0	
12	0	0	0	0	0	395	0	0	0	0	
13	0	0	0	0	1	369	0	0	0	0	
14	0	0	0	0	0	347	0	0	0	0	
15	0	0	0	0	0	325	0	0	0	0	
0	0	0	0	0	0	304	0	0	0	0	
1	0	0	0	0	0	284	0	0	0	0	
2	0	0	0	0	0	270	0	1	0	0	
3	0	0	0	0	0	257	0	0	0	0	
4	0	0	0	0	0	245	0	0	0	0	
5	0	0	0	0	4	235	0	0	0	0	
6	0	0	0	0	0	227	0	0	0	0	
7	0	0	0	0	0	218	0	0	0	0	
8	0	0	0	0	0	209	0	0	0	0	
9	0	0	0	0	0	201	0	0	0	0	
10	0	0	0	0	0	192	0	1	0	0	
11	0	0	0	0	0	181	0	0	0	0	
12	0	0	0	0	0	171	0	0	0	0	
13	0	0	0	0	4	164	0	0	0	0	
14	0	0	0	0	0	159	0	0	0	0	
15	0	0	0	0	0	158	0	0	0	0	
0	0	0	0	0	0	161	0	0	0	0	
1	0	0	0	0	0	164	0	0	0	0	
2	0	0	0	0	0	171	0	1	0	0	
3	0	0	0	0	0	182	0	0	0	0	
4	0	0	0	0	0	193	0	0	0	0	
5	0	0	0	0	4	205	0	0	0	0	
6	0	0	0	0	0	215	0	0	0	0	
7	0	0	0	0	0	225	0	0	0	0	
8	0	0	0	0	0	235	0	0	0	0	
9	0	0	0	0	0	244	0	0	0	0	
10	0	0	0	0	0	253	0	1	0	0	
11	0	0	0	0	0	262	0	0	0	0	
12	0	0	0	0	0	273	0	0	0	0	
13	0	0	0	0	4	286	0	0	0	0	
14	0	0	0	0	0	299	0	0	0	0	
15	0	0	0	0	0	310	0	0	0	0	
0	0	0	0	0	0	320	0	0	0	0	
1	0	0	0	0	0	328	0	0	0	0	
2	0	0	0	0	0	334	0	1	0	0	
3	0	0	0	0	0	339	0	0	0	0	
4	0	0	0	0	0	344	0	0	0	0	
5	0	0	0	0	4	348	0	0	0	0	
6	0	0	0	0	0	352	0	0	0	0	
7	0	0	0	0	0	355	0	0	0	0	
8	0	0	0	0	0	359	0	0	0	0	
9	0	0	0	0	0	364	0	0	0	0	
10	0	0	0	0	0	368	0	1	0	0	
11	0	0	0	0	0	372	0	0	0	0	
12	0	0	0	0	0	377	0	0	0	0	
13	0	0	0	0	4	380	0	0	0	0	
14	0	0	0	0	0	382	0	0	0	0	
15	0	0	0	0	0	383	0	0	0	0	
0	0	0	0	0	0	384	0	0	0	0	
1	0	0	0	0	0	386	0	0	0	0	
2	0	0	0	0	0	387	0	1	0	0	
3	0	0	0	0	0	388	0	0	0	0	
4	0	0	0	0	0	390	0	0	0	0	
5	0	0	0	0	4	393	0	0	0	0	
6	0	0	0	0	0	395	0	0	0	0	
7	0	0	0	0	0	396	0	0	0	0	
8	0	0	0	0	0	398	0	0	0	0	
9	0	0	0	0	0	401	0	0	0	0	
10	0	0	0	0	0	404	0	1	0	0	
11	0	0	0	0	0	403	0	0	0	0	
12	0	0	0	0	0	402	0	0	0	0	
13	0	0	0	0	4	399	0	0	0	0	
14	0	0	0	0	0	397	0	0	0	0	
15	0	0	0	0	0	396	0	0	0	0	
0	0	0	0	0	0	395	0	0	0	0	
1	0	0	0	0	0	392	0	0	0	0	
2	0	0	0	0	0	394	0	1	0	0	
3	0	0	0	0	0	397	0	0	0	0	
4	0	0	0	0	0	398	0	0	0	0	
5	0	0	0	0	4	396	0	0	0	0	
6	0	0	0	0	0	393	0	0	0	0	
7	0	0	0	0	0	392	0	0	0	0	
8	0	0	0	0	0	394	0	0	0	0	
9	0	0	0	0	0	395	0	0	0	0	
10	0	0	0	0	0	395	0	1	0	0	
11	0	0	0	0	0	395	0	0	0	0	
12	0	0	0	0	1	396	0	0	0	0	
13	0	0	0	0	4	398	0	0	0	0	
14	0	0	0	0	0	401	0	0	0	0	
15	0	0	0	0	0	401	0	0	0	0	
0	0	0	0	0	0	399	0	0	0	0	
1	0	0	0	0	0	396	0	0	0	0	
2	0	0	0	0	0	393	0	1	0	0	
3	0	0	0	0	0	393	0	0	0	0	
4	0	0	0	0	1	395	0	0	0	0	
5	0	0	0	0	4	398	0	0	0	0	
6	0	0	0	0	0	401	0	0	0	0	
7	0	0	0	0	0	404	0	0	0	0	
8	0	0	0	0	0	407	0	0	0	0	
9	0	0	0	0	0	410	0	0	0	0	
10	0	0	0	0	0	412	0	1	0	0	
11	0	0	0	0	0	413	0	0	0	0	
12	0	0	0	0	0	415	0	0	0	0	
13	0	0	0	0	2	415	0	0	0	0	
14	0	0	0	0	0	415	0	0	0	0	
15	0	0	0	0	0	414	0	0	0	0	
0	0	0	0	0	0	412	0	0	0	0	
1	0	0	0	0	0	412	0	0	0	0	
2	0	0	0	0	0	410	0	1	0	0	
3	0	0	0	0	0	404	0	0	0	0	
4	0	0	0	0	0	396	0	0	0	0	
5	0	0	0	0	2	389	0	0	0	0	
6	0	0	0	0	0	383	0	0	0	0	
7	0	0	0	0	0	379	0	0	0	0	
8	0	0	0	0	0	375	0	0	0	0	
9	0	0	0	0	0	371	0	0	0	0	
10	0	0	0	0	0	366	0	1	0	0	
11	0	0	0	0	0	362	0	0	0	0	
12	0	0	0	0	0	359	0	0	0	0	
13	0	0	0	0	2	355	0	0	0	0	
14	0	0	0	0	0	353	0	0	0	0	
15	0	0	0	0	0	350	0	0	0	0	
0	0	0	0	0	0	345	0	0	0	0	
1	0	0	0	0	0	341	0	0	0	0	
2	0	0	0	0	0	336	0	1	0	0	
3	0	0	0	0	0	332	0	0	0	0	
4	0	0	0	0	0	326	0	0	0	0	
5	0	0	0	0	4	321	0	0	0	0	
6	0	0	0	0	0	318	0	0	0	0	
7	0	0	0	0	0	317	0	0	0	0	
8	0	0	0	0	0	317	0	0	0	0	
9	0	0	0	0	0	318	0	0	0	0	
10	0	0	0	0	0	322	0	1	0	0	
11	0	0	0	0	0	324	0	0	0	0	
12	0	0	0	0	1	326	0	0	0	0	
13	0	0	0	0	4	327	0	0	0	0	
14	0	0	0	0	0	327	0	0	0	0	
15	0	0	0	0	0	329	0	0	0	0	
0	0	0	0	0	0	331	0	0	0	0	
1	0	0	0	0	0	331	0	0	0	0	
2	0	0	0	0	0	331	0	1	0	0	
3	0	0	0	0	0	331	0	0	0	0	
4	0	0	0	0	0	332	0	0	0	0	
5	0	0	0	0	4	333	0	0	0	0	
6	0	0	0	0	0	336	0	0	0	0	
7	0	0	0	0	0	339	0	0	0	0	
8	0	0	0	0	0	342	0	0	0	0	
9	0	0	0	0	0	344	0	0	0	0	
10	0	0	0	0	0	345	0	1	0	0	
11	0	0	0	0	0	347	0	0	0	0	
12	0	0	0	0	0	348	0	0	0	0	
13	0	0	0	0	4	350	0	0	0	0	
14	0	0	0	0	0	352	0	0	0	0	
15	0	0	0	0	0	353	0	0	0	0	
0	0	0	0	0	0	355	0	0	0	0	
1	0	0	0	0	0	356	0	0	0	0	
2	0	0	0	0	0	359	0	1	0	0	
3	0	0	0	0	0	364	0	0	0	0	
4	0	0	0	0	0	371	0	0	0	0	
5	0	0	0	0	4	379	0	0	0	0	
6	0	0	0	0	0	387	0	0	0	0	
7	0	0	0	0	0	394	0	0	0	0	
8	0	0	0	0	0	400	0	0	0	0	
9	0	0	0	0	0	406	0	0	0	0	
10	0	0	0	0	0	413	0	1	0	0	
11	0	0	0	0	0	421	0	0	0	0	
12	0	0	0	0	0	429	0	0	0	0	
13	0	0	0	0	4	438	0	0	0	0	
14	0	0	0	0	0	447	0	0	0	0	
15	0	0	0	0	0	455	0	0	0	0	
0	0	0	0	0	0	463	0	0	0	0	
1	0	0	0	0	0	470	0	0	0	0	
2	0	0	0	0	0	478	0	1	0	0	
3	0	0	0	0	0	487	0	0	0	0	
4	0	0	0	0	0	495	0	0	0	0	
5	0	0	0	0	4	505	0	0	0	0	
6	0	0	0	0	0	514	0	0	0	0	
7	0	0	0	0	0	523	0	0	0	0	
8	0	0	0	0	0	531	0	0	0	0	
9	0	0	0	0	0	538	0	0	0	0	
10	0	0	0	0	0	543	0	1	0	0	
11	0	0	0	0	0	547	1	0	0	0	
12	0	0	0	0	0	551	0	0	0	0	
13	0	0	0	0	4	552	0	0	0	0	
14	0	0	0	0	0	555	0	0	0	0	
15	0	0	0	0	0	556	0	0	0	0	
0	0	0	0	0	0	558	0	0	0	0	
1	0	0	0	0	0	560	0	0	0	0	
2	0	0	0	0	0	564	0	1	0	0	
3	0	0	0	0	0	568	1	0	0	0	
4	0	0	0	0	0	573	0	0	0	0	
5	0	0	0	0	4	577	0	0	0	0	
6	0	0	0	0	0	580	0	0	0	0	
7	0	0	0	0	0	584	0	0	0	0	
8	0	0	0	0	0	588	0	0	0	0	
9	0	0	0	0	0	595	0	0	0	0	
10	0	0	0	0	0	601	0	1	0	0	
11	0	0	0	0	0	606	1	0	0	0	
12	0	0	0	0	0	611	0	0	0	0	
13	0	0	0	0	4	617	0	0	0	0	
14	0	0	0	0	0	621	0	0	0	0	
15	0	0	0	0	0	624	0	0	0	0	
0	0	0	0	0	0	627	0	0	0	0	
1	0	0	0	0	0	630	0	0	0	0	
2	0	0	0	0	0	633	1	1	0	0	
3	0	0	0	0	0	636	1	0	0	0	
4	0	0	0	0	0	639	1	0	0	0	
5	0	0	0	0	4	642	1	0	0	0	
6	0	0	0	0	0	645	1	0	0	0	
7	0	0	0	0	0	649	0	0	0	0	
8	0	0	0	0	0	653	1	0	0	0	
9	0	0	0	0	0	655	1	0	0	0	
10	0	0	0	0	0	656	1	1	0	0	
11	0	0	0	0	0	656	1	0	0	0	
12	0	0	0	0	0	656	1	0	0	0	
13	0	0	0	0	1	655	1	0	0	0	
14	0	0	0	0	0	654	1	0	0	0	
15	0	0	0	0	0	654	1	0	0	0	
0	0	0	0	0	0	653	1	0	0	0	
1	0	0	0	0	0	653	1	0	0	0	
2	0	0	0	0	0	654	1	1	0	0	
3	0	0	0	0	0	653	1	0	0	0	
4	0	0	0	0	0	652	1	0	0	0	
5	0	0	0	0	1	653	1	0	0	0	
6	0	0	0	0	0	652	1	0	0	0	
7	0	0	0	0	0	653	0	0	0	0	
8	0	0	0	0	0	654	1	0	0	0	
9	0	0	0	0	0	653	1	0	0	0	
10	0	0	0	0	0	654	1	1	0	0	
11	0	0	0	0	0	655	1	0	0	0	
12	0	0	0	0	0	654	1	0	0	0	
13	0	0	0	0	1	652	1	0	0	0	
14	0	0	0	0	0	652	1	0	0	0	
15	0	0	0	0	0	651	0	0	0	0	
0	0	0	0	0	0	651	1	0	0	0	
1	0	0	0	0	0	652	1	0	0	0	
2	0	0	0	0	0	651	1	1	0	0	
3	0	0	0	0	0	648	1	0	0	0	
4	0	0	0	0	0	644	1	0	0	0	
5	0	0	0	0	4	640	1	0	0	0	
6	0	0	0	0	0	636	0	0	0	0	
7	0	0	0	0	0	634	0	0	0	0	
8	0	0	0	0	0	631	1	0	0	0	
9	0	0	0	0	0	627	0	0	0	0	
10	0	0	0	0	0	624	0	1	0	0	
11	0	0	0	0	0	622	1	0	0	0	
12	0	0	0	0	1	622	0	0	0	0	
13	0	0	0	0	4	621	0	0	0	0	
14	0	0	0	0	0	618	0	0	0	0	
15	0	0	0	0	0	614	0	0	0	0	
0	0	0	0	0	0	611	0	0	0	0	
1	0	0	0	0	0	609	0	0	0	0	
2	0	0	0	0	0	608	0	1	0	0	
3	0	0	0	0	0	604	1	0	0	0	
4	0	0	0	0	0	601	0	0	0	0	
5	0	0	0	0	4	599	0	0	0	0	
6	0	0	0	0	0	595	0	0	0	0	
7	0	0	0	0	0	592	0	0	0	0	
8	0	0	0	0	0	591	0	0	0	0	
9	0	0	0	0	0	591	0	0	0	0	
10	0	0	0	0	0	592	0	1	0	0	
11	0	0	0	0	0	590	1	0	0	0	
12	0	0	0	0	0	585	0	0	0	0	
13	0	0	0	0	4	582	0	0	0	0	
14	0	0	0	0	0	580	0	0	0	0	
15	0	0	0	0	0	578	0	0	0	0	
0	0	0	0	0	0	575	0	0	0	0	
1	0	0	0	0	0	574	0	0	0	0	
2	0	0	0	0	0	572	0	1	0	0	
3	0	0	0	0	0	569	1	0	0	0	
4	0	0	0	0	0	567	0	0	0	0	
5	0	0	0	0	4	568	0	0	0	0	
6	0	0	0	0	0	568	0	0	0	0	
7	0	0	0	0	0	569	0	0	0	0	
8	0	0	0	0	0	575	0	0	0	0	
9	0	0	0	0	0	579	0	0	0	0	
10	0	0	0	0	0	585	0	1	0	0	
11	0	0	0	0	0	590	1	0	0	0	
12	0	0	0	0	0	595	0	0	0	0	
13	0	0	0	0	4	598	0	0	0	0	
14	0	0	0	0	0	598	0	0	0	0	
15	0	0	0	0	0	595	0	0	0	0	
0	0	0	0	0	0	592	0	0	0	0	
1	0	0	0	0	0	588	0	0	0	0	
2	0	0	0	0	0	584	0	1	0	0	
3	0	0	0	0	0	580	1	0	0	0	
4	0	0	0	0	0	577	0	0	0	0	
5	0	0	0	0	4	573	0	0	0	0	
6	0	0	0	0	0	569	0	0	0	0	
7	0	0	0	0	0	566	0	0	0	0	
8	0	0	0	0	0	564	0	0	0	0	
9	0	0	0	0	0	565	0	0	0	0	
10	0	0	0	0	0	568	0	1	0	0	
11	0	0	0	0	0	570	1	0	0	0	
12	0	0	0	0	0	568	0	0	0	0	
13	0	0	0	0	4	563	0	0	0	0	
14	0	0	0	0	0	559	0	0	0	0	
15	0	0	0	0	0	556	0	0	0	0	
0	0	0	0	0	0	553	0	0	0	0	
1	0	0	0	0	0	550	0	0	0	0	
2	0	0	0	0	0	546	0	1	0	0	
3	0	0	0	0	0	541	1	0	0	0	
4	0	0	0	0	0	536	0	0	0	0	
5	0	0	0	0	4	532	0	0	0	0	
6	0	0	0	0	0	529	0	0	0	0	
7	0	0	0	0	0	526	0	0	0	0	
8	0	0	0	0	0	524	0	0	0	0	
9	0	0	0	0	0	522	0	0	0	0	
10	0	0	0	0	0	519	0	1	0	0	
11	0	0	0	0	0	518	0	0	0	0	
12	0	0	0	0	0	516	0	0	0	0	
13	0	0	0	0	4	512	0	0	0	0	
14	0	0	0	0	0	508	0	0	0	0	
15	0	0	0	0	0	505	0	0	0	0	
0	0	0	0	0	0	504	0	0	0	0	
1	0	0	0	0	0	502	0	0	0	0	
2	0	0	0	0	0	499	0	1	0	0	
3	0	0	0	0	0	497	0	0	0	0	
4	0	0	0	0	0	495	0	0	0	0	
5	0	0	0	0	4	495	0	0	0	0	
6	0	0	0	0	0	495	0	0	0	0	
7	0	0	0	0	0	496	0	0	0	0	
8	0	0	0	0	0	496	0	0	0	0	
9	0	0	0	0	0	496	0	0	0	0	
10	0	0	0	0	0	493	0	1	0	0	
11	0	0	0	0	0	490	0	0	0	0	
12	0	0	0	0	0	488	0	0	0	0	
13	0	0	0	0	2	488	0	0	0	0	
14	0	0	0	0	0	489	0	0	0	0	
15	0	0	0	0	0	490	0	0	0	0	
0	0	0	0	0	0	491	0	0	0	0	
1	0	0	0	0	0	494	0	0	0	0	
2	0	0	0	0	0	498	0	1	0	0	
3	0	0	0	0	0	501	0	0	0	0	
4	0	0	0	0	0	504	0	0	0	0	
5	0	0	0	0	2	506	0	0	0	0	
6	0	0	0	0	0	508	0	0	0	0	
7	0	0	0	0	0	512	0	0	0	0	
8	0	0	0	0	0	514	0	0	0	0	
9	0	0	0	0	0	515	0	0	0	0	
10	0	0	0	0	0	514	0	1	0	0	
11	0	0	0	0	0	513	0	0	0	0	
12	0	0	0	0	0	514	0	0	0	0	
13	0	0	0	0	4	512	0	0	0	0	
14	0	0	0	0	0	508	0	0	0	0	
15	0	0	0	0	0	506	0	0	0	0	
0	0	0	0	0	0	504	0	0	0	0	
1	0	0	0	0	0	503	0	0	0	0	
2	0	0	0	0	0	505	0	1	0	0	
3	0	0	0	0	0	508	0	0	0	0	
4	0	0	0	0	0	512	0	0	0	0	
5	0	0	0	0	4	512	0	0	0	0	
6	0	0	0	0	0	512	0	0	0	0	
7	0	0	0	0	0	512	0	0	0	0	
8	0	0	0	0	0	514	0	0	0	0	
9	0	0	0	0	0	515	0	0	0	0	
10	0	0	0	0	0	514	0	1	0	0	
11	0	0	0	0	0	513	0	0	0	0	
12	0	0	0	0	0	516	0	0	0	0	
13	0	0	0	0	4	518	0	0	0	0	
14	0	0	0	0	0	520	0	0	0	0	
15	0	0	0	0	0	524	0	0	0	0	
0	0	0	0	0	0	525	0	0	0	0	
1	0	0	0	0	0	525	0	0	0	0	
2	0	0	0	0	0	525	0	1	0	0	
3	0	0	0	0	0	525	1	0	0	0	
4	0	0	0	0	0	524	0	0	0	0	
5	0	0	0	0	4	524	0	0	0	0	
6	0	0	0	0	0	524	0	0	0	0	
7	0	0	0	0	0	524	0	0	0	0	
8	0	0	0	0	0	524	0	0	0	0	
9	0	0	0	0	0	527	0	0	0	0	
10	0	0	0	0	0	528	0	1	0	0	
11	0	0	0	0	0	529	1	0	0	0	
12	0	0	0	0	0	528	0	0	0	0	
13	0	0	0	0	4	528	0	0	0	0	
14	0	0	0	0	0	529	0	0	0	0	
15	0	0	0	0	0	530	0	0	0	0	
0	0	0	0	0	0	532	0	0	0	0	
1	0	0	0	0	0	536	0	0	0	0	
2	0	0	0	0	0	540	0	1	0	0	
3	0	0	0	0	0	542	1	0	0	0	
4	0	0	0	0	0	542	0	0	0	0	
5	0	0	0	0	4	541	0	0	0	0	
6	0	0	0	0	0	539	0	0	0	0	
7	0	0	0	0	0	540	0	0	0	0	
8	0	0	0	0	0	539	0	0	0	0	
9	0	0	0	0	0	535	0	0	0	0	
10	0	0	0	0	0	532	0	1	0	0	
11	0	0	0	0	0	533	1	0	0	0	
12	0	0	0	0	0	533	0	0	0	0	
13	0	0	0	0	4	532	0	0	0	0	
14	0	0	0	0	0	531	0	0	0	0	
15	0	0	0	0	0	531	0	0	0	0	
0	0	0	0	0	0	531	0	0	0	0	
1	0	0	0	0	0	530	0	0	0	0	
2	0	0	0	0	0	529	0	1	0	0	
3	0	0	0	0	0	528	0	0	0	0	
4	0	0	0	0	0	528	0	0	0	0	
5	0	0	0	0	4	528	0	0	0	0	
6	0	0	0	0	0	529	0	0	0	0	
7	0	0	0	0	0	527	0	0	0	0	
8	0	0	0	0	0	523	0	0	0	0	
9	0	0	0	0	0	519	0	0	0	0	
10	0	0	0	0	0	519	0	1	0	0	
11	0	0	0	0	0	519	0	0	0	0	
12	0	0	0	0	0	519	0	0	0	0	
13	0	0	0	0	4	518	0	0	0	0	
14	0	0	0	0	0	517	0	0	0	0	
15	0	0	0	0	0	516	0	0	0	0	
0	0	0	0	0	0	514	0	0	0	0	
1	0	0	0	0	0	512	0	0	0	0	
2	0	0	0	0	0	510	0	1	0	0	
3	0	0	0	0	0	508	0	0	0	0	
4	0	0	0	0	0	508	0	0	0	0	
5	0	0	0	0	4	509	0	0	0	0	
6	0	0	0	0	0	511	0	0	0	0	
7	0	0	0	0	0	512	0	0	0	0	
8	0	0	0	0	0	513	0	0	0	0	
9	0	0	0	0	0	515	0	0	0	0	
10	0	0	0	0	0	517	0	1	0	0	
11	0	0	0	0	0	517	0	0	0	0	
12	0	0	0	0	0	515	0	0	0	0	
13	0	0	0	0	4	512	0	0	0	0	
14	0	0	0	0	0	510	0	0	0	0	
15	0	0	0	0	0	508	0	0	0	0	
0	0	0	0	0	0	504	0	0	0	0	
1	0	0	0	0	0	501	0	0	0	0	
2	0	0	0	0	0	498	0	1	0	0	
3	0	0	0	0	0	496	0	0	0	0	
4	0	0	0	0	0	494	0	0	0	0	
5	0	0	0	0	1	494	0	0	0	0	
6	0	0	0	0	0	494	0	0	0	0	
7	0	0	0	0	0	494	0	0	0	0	
8	0	0	0	0	0	494	0	0	0	0	
9	0	0	0	0	0	493	0	0	0	0	
10	0	0	0	0	0	494	0	1	0	0	
11	0	0	0	0	0	497	0	0	0	0	
12	0	0	0	0	0	500	0	0	0	0	
13	0	0	0	0	1	502	0	0	0	0	
14	0	0	0	0	0	504	0	0	0	0	
15	0	0	0	0	0	507	0	0	0	0	
0	0	0	0	0	0	508	0	0	0	0	
1	0	0	0	0	0	508	0	0	0	0	
2	0	0	0	0	0	507	0	1	0	0	
3	0	0	0	0	0	508	0	0	0	0	
4	0	0	0	0	0	505	0	0	0	0	
5	0	0	0	0	1	502	0	0	0	0	
6	0	0	0	0	0	501	0	0	0	0	
7	0	0	0	0	0	502	0	0	0	0	
8	0	0	0	0	0	498	0	0	0	0	
9	0	0	0	0	0	492	0	0	0	0	
10	0	0	0	0	0	488	0	1	0	0	
11	0	0	0	0	0	486	0	0	0	0	
12	0	0	0	0	1	484	0	0	0	0	
13	0	0	0	0	4	481	0	0	0	0	
14	0	0	0	0	0	479	0	0	0	0	
15	0	0	0	0	0	473	0	0	0	0	
0	0	0	0	0	0	467	0	0	0	0	
1	0	0	0	0	0	462	0	0	0	0	
2	0	0	0	0	0	461	0	1	0	0	
3	0	0	0	0	0	461	0	0	0	0	
4	0	0	0	0	0	462	0	0	0	0	
5	0	0	0	0	4	465	0	0	0	0	
6	0	0	0	0	0	470	0	0	0	0	
7	0	0	0	0	0	474	0	0	0	0	
8	0	0	0	0	0	478	0	0	0	0	
9	0	0	0	0	0	478	0	0	0	0	
10	0	0	0	0	0	475	0	1	0	0	
11	0	0	0	0	0	470	0	0	0	0	
12	0	0	0	0	0	465	0	0	0	0	
13	0	0	0	0	4	461	0	0	0	0	
14	0	0	0	0	0	457	0	0	0	0	
15	0	0	0	0	0	454	0	0	0	0	
0	0	0	0	0	0	453	0	0	0	0	
1	0	0	0	0	0	452	0	0	0	0	
2	0	0	0	0	0	453	0	1	0	0	
3	0	0	0	0	0	454	0	0	0	0	
4	0	0	0	0	0	455	0	0	0	0	
5	0	0	0	0	4	453	0	0	0	0	
6	0	0	0	0	0	452	0	0	0	0	
7	0	0	0	0	0	451	0	0	0	0	
8	0	0	0	0	0	451	0	0	0	0	
9	0	0	0	0	0	450	0	0	0	0	
10	0	0	0	0	0	452	0	1	0	0	
11	0	0	0	0	0	453	0	0	0	0	
12	0	0	0	0	1	455	0	0	0	0	
13	0	0	0	0	4	456	0	0	0	0	
14	0	0	0	0	0	458	0	0	0	0	
15	0	0	0	0	0	460	0	0	0	0	
0	0	0	0	0	0	465	0	0	0	0	
1	0	0	0	0	0	468	0	0	0	0	
2	0	0	0	0	0	472	0	1	0	0	
3	0	0	0	0	0	476	0	0	0	0	
4	0	0	0	0	0	479	0	0	0	0	
5	0	0	0	0	4	479	0	0	0	0	
6	0	0	0	0	0	477	0	0	0	0	
7	0	0	0	0	0	475	0	0	0	0	
8	0	0	0	0	0	475	0	0	0	0	
9	0	0	0	0	0	475	0	0	0	0	
10	0	0	0	0	0	476	0	1	0	0	
11	0	0	0	0	0	475	0	0	0	0	
12	0	0	0	0	0	476	0	0	0	0	
13	0	0	0	0	4	476	0	0	0	0	
14	0	0	0	0	0	477	0	0	0	0	
15	0	0	0	0	0	478	0	0	0	0	
0	0	0	0	0	0	477	0	0	0	0	
1	0	0	0	0	0	475	0	0	0	0	
2	0	0	0	0	0	470	0	1	0	0	
3	0	0	0	0	0	465	0	0	0	0	
4	0	0	0	0	0	463	0	0	0	0	
5	0	0	0	0	4	462	0	0	0	0	
6	0	0	0	0	0	462	0	0	0	0	
7	0	0	0	0	0	462	0	0	0	0	
8	0	0	0	0	0	463	0	0	0	0	
9	0	0	0	0	0	465	0	0	0	0	
10	0	0	0	0	0	468	0	1	0	0	
11	0	0	0	0	0	469	0	0	0	0	
12	0	0	0	0	0	468	0	0	0	0	
