# OpenSignals Text File Format. Version 1
# {"00:21:08:35:15:13": {"position": 0, "device": "bitalino_rev", "device name": "00:21:08:35:15:13", "device connection": "BTH00:21:08:35:15:13", "sampling rate": 1000, "resolution": [4, 1, 1, 1, 1, 10, 10, 10, 10, 6, 6], "firmware version": 1282, "comments": "", "keywords": "", "mode": 0, "sync interval": 2, "date": "2025-4-28", "time": "19:8:6.355", "channels": [1, 2, 3, 4, 5, 6], "sensor": ["RAW", "RAW", "RAW", "RAW", "RAW", "RAW"], "label": ["A1", "A2", "A3", "A4", "A5", "A6"], "column": ["nSeq", "I1", "I2", "O1", "O2", "A1", "A2", "A3", "A4", "A5", "A6"], "special": [{}, {}, {}, {}, {}, {}], "digital IO": [0, 0, 1, 1]}}
# EndOfHeader
0	0	0	0	0	0	508	0	0	0	0	
1	0	0	0	0	0	508	0	0	0	0	
2	0	0	0	0	0	509	0	0	0	0	
3	0	0	0	0	0	510	0	0	0	0	
4	0	0	0	0	0	510	0	0	0	0	
5	0	0	0	0	0	509	0	0	0	0	
6	0	0	0	0	2	509	0	0	0	0	
7	0	0	0	0	0	510	0	0	0	0	
8	0	0	0	0	0	510	0	0	0	0	
9	0	0	0	0	0	510	0	0	0	0	
10	0	0	0	0	0	510	0	0	0	0	
11	0	0	0	0	0	510	0	0	0	0	
12	0	0	0	0	0	510	0	0	0	0	
13	0	0	0	0	0	509	0	0	0	0	
14	0	0	0	0	2	510	0	0	0	0	
15	0	0	0	0	0	509	0	0	0	0	
0	0	0	0	0	0	509	0	0	0	0	
1	0	0	0	0	0	509	0	0	0	0	
2	0	0	0	0	0	508	0	0	0	0	
3	0	0	0	0	0	509	0	0	0	0	
4	0	0	0	0	0	509	0	0	0	0	
5	0	0	0	0	0	509	0	0	0	0	
6	0	0	0	0	2	510	0	0	0	0	
7	0	0	0	0	0	509	0	0	0	0	
8	0	0	0	0	0	509	0	0	0	0	
9	0	0	0	0	0	508	0	0	0	0	
10	0	0	0	0	0	508	0	0	0	0	
11	0	0	0	0	0	508	0	0	0	0	
12	0	0	0	0	0	508	0	0	0	0	
13	0	0	0	0	0	509	0	0	0	0	
14	0	0	0	0	2	510	0	0	0	0	
15	0	0	0	0	0	511	0	0	0	0	
0	0	0	0	0	0	511	0	0	0	0	
1	0	0	0	0	0	510	0	0	0	0	
2	0	0	0	0	0	510	0	0	0	0	
3	0	0	0	0	0	511	0	0	0	0	
4	0	0	0	0	0	511	0	0	0	0	
5	0	0	0	0	0	510	0	0	0	0	
6	0	0	0	0	3	510	0	0	0	0	
7	0	0	0	0	0	510	0	0	0	0	
8	0	0	0	0	0	510	0	0	0	0	
9	0	0	0	0	0	510	0	0	0	0	
10	0	0	0	0	0	510	0	0	0	0	
11	0	0	0	0	0	509	0	0	0	0	
12	0	0	0	0	0	509	0	0	0	0	
13	0	0	0	0	0	509	0	0	0	0	
14	0	0	0	0	2	509	0	0	0	0	
15	0	0	0	0	0	508	0	0	0	0	
0	0	0	0	0	0	508	0	0	0	0	
1	0	0	0	0	0	508	0	0	0	0	
2	0	0	0	0	0	508	0	0	0	0	
3	0	0	0	0	0	509	0	0	0	0	
4	0	0	0	0	0	510	0	0	0	0	
5	0	0	0	0	0	511	0	0	0	0	
6	0	0	0	0	3	510	0	0	0	0	
7	0	0	0	0	0	511	0	0	0	0	
8	0	0	0	0	0	511	0	0	0	0	
9	0	0	0	0	0	511	0	0	0	0	
10	0	0	0	0	0	510	0	0	0	0	
11	0	0	0	0	0	510	0	0	0	0	
12	0	0	0	0	0	510	0	0	0	0	
13	0	0	0	0	0	510	0	0	0	0	
14	0	0	0	0	2	511	0	0	0	0	
15	0	0	0	0	0	511	0	0	0	0	
0	0	0	0	0	0	511	0	0	0	0	
1	0	0	0	0	0	511	0	0	0	0	
2	0	0	0	0	0	512	0	0	0	0	
3	0	0	0	0	0	512	0	0	0	0	
4	0	0	0	0	0	511	0	0	0	0	
5	0	0	0	0	0	511	0	0	0	0	
6	0	0	0	0	1	511	0	0	0	0	
7	0	0	0	0	0	510	0	0	0	0	
8	0	0	0	0	0	510	0	0	0	0	
9	0	0	0	0	0	510	0	0	0	0	
10	0	0	0	0	0	510	0	0	0	0	
11	0	0	0	0	0	510	0	0	0	0	
12	0	0	0	0	0	509	0	0	0	0	
13	0	0	0	0	0	509	0	0	0	0	
14	0	0	0	0	1	508	0	0	0	0	
15	0	0	0	0	0	509	0	0	0	0	
0	0	0	0	0	0	510	0	0	0	0	
1	0	0	0	0	0	511	0	0	0	0	
2	0	0	0	0	0	511	0	0	0	0	
3	0	0	0	0	0	511	0	0	0	0	
4	0	0	0	0	0	511	0	0	0	0	
5	0	0	0	0	0	509	0	0	0	0	
6	0	0	0	0	2	509	0	0	0	0	
7	0	0	0	0	0	508	0	0	0	0	
8	0	0	0	0	0	508	0	0	0	0	
9	0	0	0	0	0	508	0	0	0	0	
10	0	0	0	0	0	507	0	0	0	0	
11	0	0	0	0	0	506	0	0	0	0	
12	0	0	0	0	0	506	0	0	0	0	
13	0	0	0	0	0	506	0	0	0	0	
14	0	0	0	0	2	506	0	0	0	0	
15	0	0	0	0	0	505	0	0	0	0	
0	0	0	0	0	0	504	0	0	0	0	
1	0	0	0	0	0	504	0	0	0	0	
2	0	0	0	0	0	504	0	0	0	0	
3	0	0	0	0	0	503	0	0	0	0	
4	0	0	0	0	0	504	0	0	0	0	
5	0	0	0	0	0	504	0	0	0	0	
6	0	0	0	0	3	504	0	0	0	0	
7	0	0	0	0	0	504	0	0	0	0	
8	0	0	0	0	0	504	0	0	0	0	
9	0	0	0	0	0	502	0	0	0	0	
10	0	0	0	0	0	500	0	0	0	0	
11	0	0	0	0	0	500	0	0	0	0	
12	0	0	0	0	0	500	0	0	0	0	
13	0	0	0	0	0	500	0	0	0	0	
14	0	0	0	0	2	501	0	0	0	0	
15	0	0	0	0	0	500	0	0	0	0	
0	0	0	0	0	0	500	0	0	0	0	
1	0	0	0	0	0	500	0	0	0	0	
2	0	0	0	0	0	500	0	0	0	0	
3	0	0	0	0	0	501	0	0	0	0	
4	0	0	0	0	0	502	0	0	0	0	
5	0	0	0	0	0	503	0	0	0	0	
6	0	0	0	0	3	503	0	0	0	0	
7	0	0	0	0	0	503	0	0	0	0	
8	0	0	0	0	0	503	0	0	0	0	
9	0	0	0	0	0	503	0	0	0	0	
10	0	0	0	0	0	504	0	0	0	0	
11	0	0	0	0	0	504	0	0	0	0	
12	0	0	0	0	0	504	0	0	0	0	
13	0	0	0	0	0	505	0	0	0	0	
14	0	0	0	0	2	505	0	0	0	0	
15	0	0	0	0	0	506	0	0	0	0	
0	0	0	0	0	0	506	0	0	0	0	
1	0	0	0	0	0	506	0	0	0	0	
2	0	0	0	0	0	507	0	0	0	0	
3	0	0	0	0	0	508	0	0	0	0	
4	0	0	0	0	0	508	0	0	0	0	
5	0	0	0	0	0	508	0	0	0	0	
6	0	0	0	0	2	508	0	0	0	0	
7	0	0	0	0	0	509	0	0	0	0	
8	0	0	0	0	0	510	0	0	0	0	
9	0	0	0	0	0	511	0	0	0	0	
10	0	0	0	0	0	511	0	0	0	0	
11	0	0	0	0	0	510	0	0	0	0	
12	0	0	0	0	0	509	0	0	0	0	
13	0	0	0	0	0	508	0	0	0	0	
14	0	0	0	0	2	508	0	0	0	0	
15	0	0	0	0	0	508	0	0	0	0	
0	0	0	0	0	0	508	0	0	0	0	
1	0	0	0	0	0	508	0	0	0	0	
2	0	0	0	0	0	507	0	0	0	0	
3	0	0	0	0	0	507	0	0	0	0	
4	0	0	0	0	0	508	0	0	0	0	
5	0	0	0	0	0	508	0	0	0	0	
6	0	0	0	0	2	508	0	0	0	0	
7	0	0	0	0	0	508	0	0	0	0	
8	0	0	0	0	0	509	0	0	0	0	
9	0	0	0	0	0	511	0	0	0	0	
10	0	0	0	0	0	512	0	0	0	0	
11	0	0	0	0	0	513	0	0	0	0	
12	0	0	0	0	0	513	0	0	0	0	
13	0	0	0	0	0	513	0	0	0	0	
14	0	0	0	0	2	514	0	0	0	0	
15	0	0	0	0	0	514	0	0	0	0	
0	0	0	0	0	0	514	0	0	0	0	
1	0	0	0	0	0	513	0	0	0	0	
2	0	0	0	0	0	514	0	0	0	0	
3	0	0	0	0	0	513	0	0	0	0	
4	0	0	0	0	0	513	0	0	0	0	
5	0	0	0	0	0	513	0	0	0	0	
6	0	0	0	0	2	512	0	0	0	0	
7	0	0	0	0	0	513	0	0	0	0	
8	0	0	0	0	0	514	0	0	0	0	
9	0	0	0	0	0	515	0	0	0	0	
10	0	0	0	0	0	515	0	0	0	0	
11	0	0	0	0	0	515	0	0	0	0	
12	0	0	0	0	0	515	0	0	0	0	
13	0	0	0	0	0	514	0	0	0	0	
14	0	0	0	0	1	515	0	0	0	0	
15	0	0	0	0	0	515	0	0	0	0	
0	0	0	0	0	0	515	0	0	0	0	
1	0	0	0	0	0	515	0	0	0	0	
2	0	0	0	0	0	515	0	0	0	0	
3	0	0	0	0	0	517	0	0	0	0	
4	0	0	0	0	0	518	0	0	0	0	
5	0	0	0	0	0	518	0	0	0	0	
6	0	0	0	0	1	518	0	0	0	0	
7	0	0	0	0	0	518	0	0	0	0	
8	0	0	0	0	0	518	0	0	0	0	
9	0	0	0	0	0	518	0	0	0	0	
10	0	0	0	0	0	518	0	0	0	0	
11	0	0	0	0	0	517	0	0	0	0	
12	0	0	0	0	0	517	0	0	0	0	
13	0	0	0	0	0	518	0	0	0	0	
14	0	0	0	0	1	518	0	0	0	0	
15	0	0	0	0	0	519	0	0	0	0	
0	0	0	0	0	0	519	0	0	0	0	
1	0	0	0	0	0	519	0	0	0	0	
2	0	0	0	0	0	519	0	0	0	0	
3	0	0	0	0	0	519	0	0	0	0	
4	0	0	0	0	0	520	0	0	0	0	
5	0	0	0	0	0	522	0	0	0	0	
6	0	0	0	0	3	523	0	0	0	0	
7	0	0	0	0	0	524	0	0	0	0	
8	0	0	0	0	0	524	0	0	0	0	
9	0	0	0	0	0	525	0	0	0	0	
10	0	0	0	0	0	524	0	0	0	0	
11	0	0	0	0	0	522	0	0	0	0	
12	0	0	0	0	0	522	0	0	0	0	
13	0	0	0	0	0	521	0	0	0	0	
14	0	0	0	0	2	521	0	0	0	0	
15	0	0	0	0	0	521	0	0	0	0	
0	0	0	0	0	0	521	0	0	0	0	
1	0	0	0	0	0	521	0	0	0	0	
2	0	0	0	0	0	521	0	0	0	0	
3	0	0	0	0	0	521	0	0	0	0	
4	0	0	0	0	0	521	0	0	0	0	
5	0	0	0	0	0	520	0	0	0	0	
6	0	0	0	0	2	520	0	0	0	0	
7	0	0	0	0	0	520	0	0	0	0	
8	0	0	0	0	0	520	0	0	0	0	
9	0	0	0	0	0	521	0	0	0	0	
10	0	0	0	0	0	520	0	0	0	0	
11	0	0	0	0	0	521	0	0	0	0	
12	0	0	0	0	0	521	0	0	0	0	
13	0	0	0	0	0	520	0	0	0	0	
14	0	0	0	0	2	521	0	0	0	0	
15	0	0	0	0	0	520	0	0	0	0	
0	0	0	0	0	0	521	0	0	0	0	
1	0	0	0	0	0	522	0	0	0	0	
2	0	0	0	0	0	523	0	0	0	0	
3	0	0	0	0	0	524	0	0	0	0	
4	0	0	0	0	0	525	0	0	0	0	
5	0	0	0	0	0	526	0	0	0	0	
6	0	0	0	0	2	527	0	0	0	0	
7	0	0	0	0	0	527	0	0	0	0	
8	0	0	0	0	0	527	0	0	0	0	
9	0	0	0	0	0	527	0	0	0	0	
10	0	0	0	0	0	528	0	0	0	0	
11	0	0	0	0	0	528	0	0	0	0	
12	0	0	0	0	0	528	0	0	0	0	
13	0	0	0	0	0	528	0	0	0	0	
14	0	0	0	0	3	528	0	0	0	0	
15	0	0	0	0	0	530	0	0	0	0	
0	0	0	0	0	0	531	0	0	0	0	
1	0	0	0	0	0	532	0	0	0	0	
2	0	0	0	0	0	534	0	0	0	0	
3	0	0	0	0	0	536	0	0	0	0	
4	0	0	0	0	0	537	0	0	0	0	
5	0	0	0	0	0	538	0	0	0	0	
6	0	0	0	0	3	537	0	0	0	0	
7	0	0	0	0	0	537	0	0	0	0	
8	0	0	0	0	0	536	0	0	0	0	
9	0	0	0	0	0	536	0	0	0	0	
10	0	0	0	0	0	535	0	0	0	0	
11	0	0	0	0	0	535	0	0	0	0	
12	0	0	0	0	0	533	0	0	0	0	
13	0	0	0	0	0	533	0	0	0	0	
14	0	0	0	0	2	533	0	0	0	0	
15	0	0	0	0	0	533	0	0	0	0	
0	0	0	0	0	0	533	0	0	0	0	
1	0	0	0	0	0	533	0	0	0	0	
2	0	0	0	0	0	533	0	0	0	0	
3	0	0	0	0	0	534	0	0	0	0	
4	0	0	0	0	0	535	0	0	0	0	
5	0	0	0	0	0	535	0	0	0	0	
6	0	0	0	0	3	535	0	0	0	0	
7	0	0	0	0	0	536	0	0	0	0	
8	0	0	0	0	0	536	0	0	0	0	
9	0	0	0	0	0	537	0	0	0	0	
10	0	0	0	0	0	539	0	0	0	0	
11	0	0	0	0	0	539	0	0	0	0	
12	0	0	0	0	0	540	0	0	0	0	
13	0	0	0	0	0	540	0	0	0	0	
14	0	0	0	0	2	540	0	0	0	0	
15	0	0	0	0	0	539	0	0	0	0	
0	0	0	0	0	0	537	0	0	0	0	
1	0	0	0	0	0	535	0	0	0	0	
2	0	0	0	0	0	534	0	0	0	0	
3	0	0	0	0	0	532	0	0	0	0	
4	0	0	0	0	0	530	0	0	0	0	
5	0	0	0	0	0	528	0	0	0	0	
6	0	0	0	0	3	525	0	0	0	0	
7	0	0	0	0	0	524	0	0	0	0	
8	0	0	0	0	0	522	0	0	0	0	
9	0	0	0	0	0	523	0	0	0	0	
10	0	0	0	0	0	524	0	0	0	0	
11	0	0	0	0	0	525	0	0	0	0	
12	0	0	0	0	0	527	0	0	0	0	
13	0	0	0	0	0	528	0	0	0	0	
14	0	0	0	0	1	530	0	0	0	0	
15	0	0	0	0	0	531	0	0	0	0	
0	0	0	0	0	0	531	0	0	0	0	
1	0	0	0	0	0	531	0	0	0	0	
2	0	0	0	0	0	531	0	0	0	0	
3	0	0	0	0	0	531	0	0	0	0	
4	0	0	0	0	0	530	0	0	0	0	
5	0	0	0	0	0	530	0	0	0	0	
6	0	0	0	0	1	530	0	0	0	0	
7	0	0	0	0	0	530	0	0	0	0	
8	0	0	0	0	0	529	0	0	0	0	
9	0	0	0	0	0	528	0	0	0	0	
10	0	0	0	0	0	526	0	0	0	0	
11	0	0	0	0	0	523	0	0	0	0	
12	0	0	0	0	0	520	0	0	0	0	
13	0	0	0	0	0	519	0	0	0	0	
14	0	0	0	0	1	517	0	0	0	0	
15	0	0	0	0	0	515	0	0	0	0	
0	0	0	0	0	0	513	0	0	0	0	
1	0	0	0	0	0	510	0	0	0	0	
2	0	0	0	0	0	508	0	0	0	0	
3	0	0	0	0	0	505	0	0	0	0	
4	0	0	0	0	0	503	0	0	0	0	
5	0	0	0	0	0	501	0	0	0	0	
6	0	0	0	0	3	499	0	0	0	0	
7	0	0	0	0	0	497	0	0	0	0	
8	0	0	0	0	0	496	0	0	0	0	
9	0	0	0	0	0	495	0	0	0	0	
10	0	0	0	0	0	495	0	0	0	0	
11	0	0	0	0	0	495	0	0	0	0	
12	0	0	0	0	0	495	0	0	0	0	
13	0	0	0	0	0	494	0	0	0	0	
14	0	0	0	0	3	493	0	0	0	0	
15	0	0	0	0	0	493	0	0	0	0	
0	0	0	0	0	0	493	0	0	0	0	
1	0	0	0	0	0	493	0	0	0	0	
2	0	0	0	0	0	493	0	0	0	0	
3	0	0	0	0	0	493	0	0	0	0	
4	0	0	0	0	0	493	0	0	0	0	
5	0	0	0	0	0	492	0	0	0	0	
6	0	0	0	0	3	492	0	0	0	0	
7	0	0	0	0	0	491	0	0	0	0	
8	0	0	0	0	0	490	0	0	0	0	
9	0	0	0	0	0	490	0	0	0	0	
10	0	0	0	0	0	490	0	0	0	0	
11	0	0	0	0	0	489	0	0	0	0	
12	0	0	0	0	0	489	0	0	0	0	
13	0	0	0	0	0	489	0	0	0	0	
14	0	0	0	0	2	490	0	0	0	0	
15	0	0	0	0	0	489	0	0	0	0	
0	0	0	0	0	0	489	0	0	0	0	
1	0	0	0	0	0	490	0	0	0	0	
2	0	0	0	0	0	489	0	0	0	0	
3	0	0	0	0	0	490	0	0	0	0	
4	0	0	0	0	0	491	0	0	0	0	
5	0	0	0	0	0	492	0	0	0	0	
6	0	0	0	0	3	492	0	0	0	0	
7	0	0	0	0	0	492	0	0	0	0	
8	0	0	0	0	0	492	0	0	0	0	
9	0	0	0	0	0	492	0	0	0	0	
10	0	0	0	0	0	493	0	0	0	0	
11	0	0	0	0	0	493	0	0	0	0	
12	0	0	0	0	0	494	0	0	0	0	
13	0	0	0	0	0	494	0	0	0	0	
14	0	0	0	0	2	495	0	0	0	0	
15	0	0	0	0	0	495	0	0	0	0	
0	0	0	0	0	0	496	0	0	0	0	
1	0	0	0	0	0	496	0	0	0	0	
2	0	0	0	0	0	496	0	0	0	0	
3	0	0	0	0	0	495	0	0	0	0	
4	0	0	0	0	0	495	0	0	0	0	
5	0	0	0	0	0	495	0	0	0	0	
6	0	0	0	0	3	495	0	0	0	0	
7	0	0	0	0	0	495	0	0	0	0	
8	0	0	0	0	0	493	0	0	0	0	
9	0	0	0	0	0	492	0	0	0	0	
10	0	0	0	0	0	492	0	0	0	0	
11	0	0	0	0	0	492	0	0	0	0	
12	0	0	0	0	0	493	0	0	0	0	
13	0	0	0	0	0	494	0	0	0	0	
14	0	0	0	0	2	494	0	0	0	0	
15	0	0	0	0	0	493	0	0	0	0	
0	0	0	0	0	0	491	0	0	0	0	
1	0	0	0	0	0	488	0	0	0	0	
2	0	0	0	0	0	485	0	0	0	0	
3	0	0	0	0	0	482	0	0	0	0	
4	0	0	0	0	0	479	0	0	0	0	
5	0	0	0	0	0	477	0	0	0	0	
6	0	0	0	0	2	474	0	0	0	0	
7	0	0	0	0	0	472	0	0	0	0	
8	0	0	0	0	0	471	0	0	0	0	
9	0	0	0	0	0	472	0	0	0	0	
10	0	0	0	0	0	476	0	0	0	0	
11	0	0	0	0	0	480	0	0	0	0	
12	0	0	0	0	0	487	0	0	0	0	
13	0	0	0	0	0	494	0	0	0	0	
14	0	0	0	0	2	504	0	0	0	0	
15	0	0	0	0	0	515	0	0	0	0	
0	0	0	0	0	0	526	0	0	0	0	
1	0	0	0	0	0	540	0	0	0	0	
2	0	0	0	0	0	552	0	0	0	0	
3	0	0	0	0	0	563	0	0	0	0	
4	0	0	0	0	0	573	0	0	0	0	
5	0	0	0	0	0	584	0	0	0	0	
6	0	0	0	0	2	596	0	0	0	0	
7	0	0	0	0	0	610	0	0	0	0	
8	0	0	0	0	0	624	0	0	0	0	
9	0	0	0	0	0	639	1	0	0	0	
10	0	0	0	0	0	656	1	0	0	0	
11	0	0	0	0	0	678	1	0	0	0	
12	0	0	0	0	0	704	1	0	0	0	
13	0	0	0	0	0	731	1	0	0	0	
14	0	0	0	0	1	758	1	0	0	0	
15	0	0	0	0	0	786	1	0	0	0	
0	0	0	0	0	0	815	1	0	0	0	
1	0	0	0	0	0	844	2	0	0	0	
2	0	0	0	0	0	871	2	0	0	0	
3	0	0	0	0	0	894	2	0	0	0	
4	0	0	0	0	0	915	2	0	0	0	
5	0	0	0	0	0	933	2	0	0	0	
6	0	0	0	0	1	948	2	0	0	0	
7	0	0	0	0	0	962	3	0	0	0	
8	0	0	0	0	0	970	3	0	0	0	
9	0	0	0	0	0	974	3	0	0	0	
10	0	0	0	0	0	968	3	0	0	0	
11	0	0	0	0	0	955	2	0	0	0	
12	0	0	0	0	0	937	2	0	0	0	
13	0	0	0	0	0	913	2	0	0	0	
14	0	0	0	0	2	881	2	0	0	0	
15	0	0	0	0	0	841	2	0	0	0	
0	0	0	0	0	0	796	1	0	0	0	
1	0	0	0	0	0	749	1	0	0	0	
2	0	0	0	0	0	701	1	0	0	0	
3	0	0	0	0	0	660	1	0	0	0	
4	0	0	0	0	0	622	1	0	0	0	
5	0	0	0	0	0	591	0	0	0	0	
6	0	0	0	0	2	564	0	0	0	0	
7	0	0	0	0	0	539	0	0	0	0	
8	0	0	0	0	0	514	0	0	0	0	
9	0	0	0	0	0	490	0	0	0	0	
10	0	0	0	0	0	468	0	0	0	0	
11	0	0	0	0	0	448	0	0	0	0	
12	0	0	0	0	0	429	0	0	0	0	
13	0	0	0	0	0	412	0	0	0	0	
14	0	0	0	0	2	394	0	0	0	0	
15	0	0	0	0	0	377	0	0	0	0	
0	0	0	0	0	0	360	0	0	0	0	
1	0	0	0	0	0	344	0	0	0	0	
2	0	0	0	0	0	328	0	0	0	0	
3	0	0	0	0	0	316	0	0	0	0	
4	0	0	0	0	0	305	0	0	0	0	
5	0	0	0	0	0	299	0	0	0	0	
6	0	0	0	0	3	296	0	0	0	0	
7	0	0	0	0	0	297	0	0	0	0	
8	0	0	0	0	0	301	0	0	0	0	
9	0	0	0	0	0	308	0	0	0	0	
10	0	0	0	0	0	316	0	0	0	0	
11	0	0	0	0	0	326	0	0	0	0	
12	0	0	0	0	0	335	0	0	0	0	
13	0	0	0	0	0	344	0	0	0	0	
14	0	0	0	0	3	352	0	0	0	0	
15	0	0	0	0	0	359	0	0	0	0	
0	0	0	0	0	0	368	0	0	0	0	
1	0	0	0	0	0	376	0	0	0	0	
2	0	0	0	0	0	383	0	0	0	0	
3	0	0	0	0	0	391	0	0	0	0	
4	0	0	0	0	0	397	0	0	0	0	
5	0	0	0	0	0	403	0	0	0	0	
6	0	0	0	0	3	406	0	0	0	0	
7	0	0	0	0	0	411	0	0	0	0	
8	0	0	0	0	0	415	0	0	0	0	
9	0	0	0	0	0	417	0	0	0	0	
10	0	0	0	0	0	419	0	0	0	0	
11	0	0	0	0	0	422	0	0	0	0	
12	0	0	0	0	0	424	0	0	0	0	
13	0	0	0	0	0	426	0	0	0	0	
14	0	0	0	0	2	428	0	0	0	0	
15	0	0	0	0	0	430	0	0	0	0	
0	0	0	0	0	0	433	0	0	0	0	
1	0	0	0	0	0	435	0	0	0	0	
2	0	0	0	0	0	436	0	0	0	0	
3	0	0	0	0	0	437	0	0	0	0	
4	0	0	0	0	0	438	0	0	0	0	
5	0	0	0	0	0	440	0	0	0	0	
6	0	0	0	0	2	441	0	0	0	0	
7	0	0	0	0	0	441	0	0	0	0	
8	0	0	0	0	0	442	0	0	0	0	
9	0	0	0	0	0	443	0	0	0	0	
10	0	0	0	0	0	444	0	0	0	0	
11	0	0	0	0	0	444	0	0	0	0	
12	0	0	0	0	0	444	0	0	0	0	
13	0	0	0	0	0	443	0	0	0	0	
14	0	0	0	0	3	444	0	0	0	0	
15	0	0	0	0	0	445	0	0	0	0	
0	0	0	0	0	0	446	0	0	0	0	
1	0	0	0	0	0	447	0	0	0	0	
2	0	0	0	0	0	448	0	0	0	0	
3	0	0	0	0	0	450	0	0	0	0	
4	0	0	0	0	0	451	0	0	0	0	
5	0	0	0	0	0	453	0	0	0	0	
6	0	0	0	0	2	455	0	0	0	0	
7	0	0	0	0	0	456	0	0	0	0	
8	0	0	0	0	0	456	0	0	0	0	
9	0	0	0	0	0	457	0	0	0	0	
10	0	0	0	0	0	458	0	0	0	0	
11	0	0	0	0	0	459	0	0	0	0	
12	0	0	0	0	0	461	0	0	0	0	
13	0	0	0	0	0	460	0	0	0	0	
14	0	0	0	0	2	461	0	0	0	0	
15	0	0	0	0	0	461	0	0	0	0	
0	0	0	0	0	0	461	0	0	0	0	
1	0	0	0	0	0	461	0	0	0	0	
2	0	0	0	0	0	462	0	0	0	0	
3	0	0	0	0	0	463	0	0	0	0	
4	0	0	0	0	0	465	0	0	0	0	
5	0	0	0	0	0	467	0	0	0	0	
6	0	0	0	0	1	468	0	0	0	0	
7	0	0	0	0	0	468	0	0	0	0	
8	0	0	0	0	0	469	0	0	0	0	
9	0	0	0	0	0	469	0	0	0	0	
10	0	0	0	0	0	470	0	0	0	0	
11	0	0	0	0	0	471	0	0	0	0	
12	0	0	0	0	0	472	0	0	0	0	
13	0	0	0	0	0	473	0	0	0	0	
14	0	0	0	0	1	475	0	0	0	0	
15	0	0	0	0	0	476	0	0	0	0	
0	0	0	0	0	0	477	0	0	0	0	
1	0	0	0	0	0	479	0	0	0	0	
2	0	0	0	0	0	481	0	0	0	0	
3	0	0	0	0	0	481	0	0	0	0	
4	0	0	0	0	0	482	0	0	0	0	
5	0	0	0	0	0	482	0	0	0	0	
6	0	0	0	0	1	484	0	0	0	0	
7	0	0	0	0	0	485	0	0	0	0	
8	0	0	0	0	0	487	0	0	0	0	
9	0	0	0	0	0	488	0	0	0	0	
10	0	0	0	0	0	490	0	0	0	0	
11	0	0	0	0	0	491	0	0	0	0	
12	0	0	0	0	0	491	0	0	0	0	
13	0	0	0	0	0	491	0	0	0	0	
14	0	0	0	0	3	492	0	0	0	0	
15	0	0	0	0	0	491	0	0	0	0	
0	0	0	0	0	0	492	0	0	0	0	
1	0	0	0	0	0	491	0	0	0	0	
2	0	0	0	0	0	491	0	0	0	0	
3	0	0	0	0	0	492	0	0	0	0	
4	0	0	0	0	0	492	0	0	0	0	
5	0	0	0	0	0	494	0	0	0	0	
6	0	0	0	0	2	495	0	0	0	0	
7	0	0	0	0	0	496	0	0	0	0	
8	0	0	0	0	0	498	0	0	0	0	
9	0	0	0	0	0	499	0	0	0	0	
10	0	0	0	0	0	499	0	0	0	0	
11	0	0	0	0	0	500	0	0	0	0	
12	0	0	0	0	0	501	0	0	0	0	
13	0	0	0	0	0	502	0	0	0	0	
14	0	0	0	0	3	504	0	0	0	0	
15	0	0	0	0	0	505	0	0	0	0	
0	0	0	0	0	0	506	0	0	0	0	
1	0	0	0	0	0	506	0	0	0	0	
2	0	0	0	0	0	507	0	0	0	0	
3	0	0	0	0	0	508	0	0	0	0	
4	0	0	0	0	0	508	0	0	0	0	
5	0	0	0	0	0	508	0	0	0	0	
6	0	0	0	0	2	509	0	0	0	0	
7	0	0	0	0	0	509	0	0	0	0	
8	0	0	0	0	0	510	0	0	0	0	
9	0	0	0	0	0	510	0	0	0	0	
10	0	0	0	0	0	511	0	0	0	0	
11	0	0	0	0	0	512	0	0	0	0	
12	0	0	0	0	0	512	0	0	0	0	
13	0	0	0	0	0	513	0	0	0	0	
14	0	0	0	0	3	513	0	0	0	0	
15	0	0	0	0	0	513	0	0	0	0	
0	0	0	0	0	0	513	0	0	0	0	
1	0	0	0	0	0	514	0	0	0	0	
2	0	0	0	0	0	513	0	0	0	0	
3	0	0	0	0	0	512	0	0	0	0	
4	0	0	0	0	0	512	0	0	0	0	
5	0	0	0	0	0	512	0	0	0	0	
6	0	0	0	0	2	513	0	0	0	0	
7	0	0	0	0	0	513	0	0	0	0	
8	0	0	0	0	0	515	0	0	0	0	
9	0	0	0	0	0	516	0	0	0	0	
10	0	0	0	0	0	516	0	0	0	0	
11	0	0	0	0	0	516	0	0	0	0	
12	0	0	0	0	0	517	0	0	0	0	
13	0	0	0	0	0	517	0	0	0	0	
14	0	0	0	0	2	517	0	0	0	0	
15	0	0	0	0	0	516	0	0	0	0	
0	0	0	0	0	0	516	0	0	0	0	
1	0	0	0	0	0	516	0	0	0	0	
2	0	0	0	0	0	516	0	0	0	0	
3	0	0	0	0	0	515	0	0	0	0	
4	0	0	0	0	0	516	0	0	0	0	
5	0	0	0	0	0	516	0	0	0	0	
6	0	0	0	0	2	517	0	0	0	0	
7	0	0	0	0	0	518	0	0	0	0	
8	0	0	0	0	0	518	0	0	0	0	
9	0	0	0	0	0	518	0	0	0	0	
10	0	0	0	0	0	518	0	0	0	0	
11	0	0	0	0	0	517	0	0	0	0	
12	0	0	0	0	0	517	0	0	0	0	
13	0	0	0	0	0	517	0	0	0	0	
14	0	0	0	0	2	517	0	0	0	0	
15	0	0	0	0	0	516	0	0	0	0	
0	0	0	0	0	0	517	0	0	0	0	
1	0	0	0	0	0	517	0	0	0	0	
2	0	0	0	0	0	517	0	0	0	0	
3	0	0	0	0	0	517	0	0	0	0	
4	0	0	0	0	0	516	0	0	0	0	
5	0	0	0	0	0	516	0	0	0	0	
6	0	0	0	0	3	516	0	0	0	0	
7	0	0	0	0	0	516	0	0	0	0	
8	0	0	0	0	0	517	0	0	0	0	
9	0	0	0	0	0	517	0	0	0	0	
10	0	0	0	0	0	518	0	0	0	0	
11	0	0	0	0	0	518	0	0	0	0	
12	0	0	0	0	0	518	0	0	0	0	
13	0	0	0	0	0	517	0	0	0	0	
14	0	0	0	0	2	517	0	0	0	0	
15	0	0	0	0	0	515	0	0	0	0	
0	0	0	0	0	0	513	0	0	0	0	
1	0	0	0	0	0	512	0	0	0	0	
2	0	0	0	0	0	512	0	0	0	0	
3	0	0	0	0	0	512	0	0	0	0	
4	0	0	0	0	0	512	0	0	0	0	
5	0	0	0	0	0	513	0	0	0	0	
6	0	0	0	0	1	514	0	0	0	0	
7	0	0	0	0	0	514	0	0	0	0	
8	0	0	0	0	0	514	0	0	0	0	
9	0	0	0	0	0	514	0	0	0	0	
10	0	0	0	0	0	513	0	0	0	0	
11	0	0	0	0	0	513	0	0	0	0	
12	0	0	0	0	0	513	0	0	0	0	
13	0	0	0	0	0	513	0	0	0	0	
14	0	0	0	0	1	513	0	0	0	0	
15	0	0	0	0	0	513	0	0	0	0	
0	0	0	0	0	0	514	0	0	0	0	
1	0	0	0	0	0	515	0	0	0	0	
2	0	0	0	0	0	515	0	0	0	0	
3	0	0	0	0	0	514	0	0	0	0	
4	0	0	0	0	0	514	0	0	0	0	
5	0	0	0	0	0	515	0	0	0	0	
6	0	0	0	0	1	515	0	0	0	0	
7	0	0	0	0	0	516	0	0	0	0	
8	0	0	0	0	0	516	0	0	0	0	
9	0	0	0	0	0	516	0	0	0	0	
10	0	0	0	0	0	517	0	0	0	0	
11	0	0	0	0	0	518	0	0	0	0	
12	0	0	0	0	0	518	0	0	0	0	
13	0	0	0	0	0	518	0	0	0	0	
14	0	0	0	0	2	518	0	0	0	0	
15	0	0	0	0	0	519	0	0	0	0	
0	0	0	0	0	0	519	0	0	0	0	
1	0	0	0	0	0	519	0	0	0	0	
2	0	0	0	0	0	520	0	0	0	0	
3	0	0	0	0	0	520	0	0	0	0	
4	0	0	0	0	0	521	0	0	0	0	
5	0	0	0	0	0	521	0	0	0	0	
6	0	0	0	0	3	521	0	0	0	0	
7	0	0	0	0	0	523	0	0	0	0	
8	0	0	0	0	0	524	0	0	0	0	
9	0	0	0	0	0	525	0	0	0	0	
10	0	0	0	0	0	526	0	0	0	0	
11	0	0	0	0	0	526	0	0	0	0	
12	0	0	0	0	0	526	0	0	0	0	
13	0	0	0	0	0	526	0	0	0	0	
14	0	0	0	0	2	527	0	0	0	0	
15	0	0	0	0	0	527	0	0	0	0	
0	0	0	0	0	0	527	0	0	0	0	
1	0	0	0	0	0	527	0	0	0	0	
2	0	0	0	0	0	527	0	0	0	0	
3	0	0	0	0	0	528	0	0	0	0	
4	0	0	0	0	0	529	0	0	0	0	
5	0	0	0	0	0	530	0	0	0	0	
6	0	0	0	0	2	530	0	0	0	0	
7	0	0	0	0	0	530	0	0	0	0	
8	0	0	0	0	0	530	0	0	0	0	
9	0	0	0	0	0	531	0	0	0	0	
10	0	0	0	0	0	532	0	0	0	0	
11	0	0	0	0	0	533	0	0	0	0	
12	0	0	0	0	0	534	0	0	0	0	
13	0	0	0	0	0	534	0	0	0	0	
14	0	0	0	0	2	534	0	0	0	0	
15	0	0	0	0	0	532	0	0	0	0	
0	0	0	0	0	0	531	0	0	0	0	
1	0	0	0	0	0	530	0	0	0	0	
2	0	0	0	0	0	529	0	0	0	0	
3	0	0	0	0	0	529	0	0	0	0	
4	0	0	0	0	0	528	0	0	0	0	
5	0	0	0	0	0	528	0	0	0	0	
6	0	0	0	0	3	528	0	0	0	0	
7	0	0	0	0	0	528	0	0	0	0	
8	0	0	0	0	0	527	0	0	0	0	
9	0	0	0	0	0	527	0	0	0	0	
10	0	0	0	0	0	526	0	0	0	0	
11	0	0	0	0	0	524	0	0	0	0	
12	0	0	0	0	0	524	0	0	0	0	
13	0	0	0	0	0	523	0	0	0	0	
14	0	0	0	0	3	524	0	0	0	0	
15	0	0	0	0	0	525	0	0	0	0	
0	0	0	0	0	0	524	0	0	0	0	
1	0	0	0	0	0	524	0	0	0	0	
2	0	0	0	0	0	524	0	0	0	0	
3	0	0	0	0	0	523	0	0	0	0	
4	0	0	0	0	0	522	0	0	0	0	
5	0	0	0	0	0	520	0	0	0	0	
6	0	0	0	0	2	519	0	0	0	0	
7	0	0	0	0	0	518	0	0	0	0	
8	0	0	0	0	0	517	0	0	0	0	
9	0	0	0	0	0	516	0	0	0	0	
10	0	0	0	0	0	514	0	0	0	0	
11	0	0	0	0	0	512	0	0	0	0	
12	0	0	0	0	0	511	0	0	0	0	
13	0	0	0	0	0	510	0	0	0	0	
14	0	0	0	0	3	510	0	0	0	0	
15	0	0	0	0	0	509	0	0	0	0	
0	0	0	0	0	0	508	0	0	0	0	
1	0	0	0	0	0	507	0	0	0	0	
2	0	0	0	0	0	505	0	0	0	0	
3	0	0	0	0	0	504	0	0	0	0	
4	0	0	0	0	0	502	0	0	0	0	
5	0	0	0	0	0	501	0	0	0	0	
6	0	0	0	0	2	500	0	0	0	0	
7	0	0	0	0	0	500	0	0	0	0	
8	0	0	0	0	0	501	0	0	0	0	
9	0	0	0	0	0	499	0	0	0	0	
10	0	0	0	0	0	499	0	0	0	0	
11	0	0	0	0	0	499	0	0	0	0	
12	0	0	0	0	0	499	0	0	0	0	
13	0	0	0	0	0	498	0	0	0	0	
14	0	0	0	0	1	497	0	0	0	0	
15	0	0	0	0	0	496	0	0	0	0	
0	0	0	0	0	0	496	0	0	0	0	
1	0	0	0	0	0	496	0	0	0	0	
2	0	0	0	0	0	496	0	0	0	0	
3	0	0	0	0	0	496	0	0	0	0	
4	0	0	0	0	0	496	0	0	0	0	
5	0	0	0	0	0	495	0	0	0	0	
6	0	0	0	0	1	494	0	0	0	0	
7	0	0	0	0	0	493	0	0	0	0	
8	0	0	0	0	0	492	0	0	0	0	
9	0	0	0	0	0	491	0	0	0	0	
10	0	0	0	0	0	491	0	0	0	0	
11	0	0	0	0	0	491	0	0	0	0	
12	0	0	0	0	0	489	0	0	0	0	
13	0	0	0	0	0	488	0	0	0	0	
14	0	0	0	0	1	487	0	0	0	0	
15	0	0	0	0	0	487	0	0	0	0	
0	0	0	0	0	0	487	0	0	0	0	
1	0	0	0	0	0	484	0	0	0	0	
2	0	0	0	0	0	483	0	0	0	0	
3	0	0	0	0	0	481	0	0	0	0	
4	0	0	0	0	0	479	0	0	0	0	
5	0	0	0	0	0	476	0	0	0	0	
6	0	0	0	0	2	474	0	0	0	0	
7	0	0	0	0	0	472	0	0	0	0	
8	0	0	0	0	0	469	0	0	0	0	
9	0	0	0	0	0	467	0	0	0	0	
10	0	0	0	0	0	467	0	0	0	0	
11	0	0	0	0	0	467	0	0	0	0	
12	0	0	0	0	0	465	0	0	0	0	
13	0	0	0	0	0	464	0	0	0	0	
14	0	0	0	0	2	463	0	0	0	0	
15	0	0	0	0	0	463	0	0	0	0	
0	0	0	0	0	0	462	0	0	0	0	
1	0	0	0	0	0	462	0	0	0	0	
2	0	0	0	0	0	462	0	0	0	0	
3	0	0	0	0	0	462	0	0	0	0	
4	0	0	0	0	0	462	0	0	0	0	
5	0	0	0	0	0	462	0	0	0	0	
6	0	0	0	0	3	463	0	0	0	0	
7	0	0	0	0	0	462	0	0	0	0	
8	0	0	0	0	0	464	0	0	0	0	
9	0	0	0	0	0	464	0	0	0	0	
10	0	0	0	0	0	465	0	0	0	0	
11	0	0	0	0	0	465	0	0	0	0	
12	0	0	0	0	0	464	0	0	0	0	
13	0	0	0	0	0	463	0	0	0	0	
14	0	0	0	0	2	463	0	0	0	0	
15	0	0	0	0	0	462	0	0	0	0	
0	0	0	0	0	0	461	0	0	0	0	
1	0	0	0	0	0	461	0	0	0	0	
2	0	0	0	0	0	461	0	0	0	0	
3	0	0	0	0	0	462	0	0	0	0	
4	0	0	0	0	0	462	0	0	0	0	
5	0	0	0	0	0	463	0	0	0	0	
6	0	0	0	0	2	463	0	0	0	0	
7	0	0	0	0	0	463	0	0	0	0	
8	0	0	0	0	0	463	0	0	0	0	
9	0	0	0	0	0	463	0	0	0	0	
10	0	0	0	0	0	463	0	0	0	0	
11	0	0	0	0	0	463	0	0	0	0	
12	0	0	0	0	0	464	0	0	0	0	
13	0	0	0	0	0	464	0	0	0	0	
14	0	0	0	0	3	464	0	0	0	0	
15	0	0	0	0	0	465	0	0	0	0	
0	0	0	0	0	0	466	0	0	0	0	
1	0	0	0	0	0	466	0	0	0	0	
2	0	0	0	0	0	466	0	0	0	0	
3	0	0	0	0	0	466	0	0	0	0	
4	0	0	0	0	0	467	0	0	0	0	
5	0	0	0	0	0	470	0	0	0	0	
6	0	0	0	0	2	471	0	0	0	0	
7	0	0	0	0	0	472	0	0	0	0	
8	0	0	0	0	0	472	0	0	0	0	
9	0	0	0	0	0	472	0	0	0	0	
10	0	0	0	0	0	473	0	0	0	0	
11	0	0	0	0	0	474	0	0	0	0	
12	0	0	0	0	0	475	0	0	0	0	
13	0	0	0	0	0	476	0	0	0	0	
14	0	0	0	0	2	477	0	0	0	0	
15	0	0	0	0	0	477	0	0	0	0	
0	0	0	0	0	0	478	0	0	0	0	
1	0	0	0	0	0	478	0	0	0	0	
2	0	0	0	0	0	478	0	0	0	0	
3	0	0	0	0	0	478	0	0	0	0	
4	0	0	0	0	0	479	0	0	0	0	
5	0	0	0	0	0	479	0	0	0	0	
6	0	0	0	0	2	480	0	0	0	0	
7	0	0	0	0	0	479	0	0	0	0	
8	0	0	0	0	0	479	0	0	0	0	
9	0	0	0	0	0	480	0	0	0	0	
10	0	0	0	0	0	479	0	0	0	0	
11	0	0	0	0	0	479	0	0	0	0	
12	0	0	0	0	0	480	0	0	0	0	
13	0	0	0	0	0	482	0	0	0	0	
14	0	0	0	0	2	483	0	0	0	0	
15	0	0	0	0	0	484	0	0	0	0	
0	0	0	0	0	0	486	0	0	0	0	
1	0	0	0	0	0	487	0	0	0	0	
2	0	0	0	0	0	488	0	0	0	0	
3	0	0	0	0	0	489	0	0	0	0	
4	0	0	0	0	0	491	0	0	0	0	
5	0	0	0	0	0	491	0	0	0	0	
6	0	0	0	0	2	491	0	0	0	0	
7	0	0	0	0	0	491	0	0	0	0	
8	0	0	0	0	0	492	0	0	0	0	
9	0	0	0	0	0	494	0	0	0	0	
10	0	0	0	0	0	496	0	0	0	0	
11	0	0	0	0	0	499	0	0	0	0	
12	0	0	0	0	0	499	0	0	0	0	
13	0	0	0	0	0	502	0	0	0	0	
14	0	0	0	0	1	503	0	0	0	0	
15	0	0	0	0	0	504	0	0	0	0	
0	0	0	0	0	0	505	0	0	0	0	
1	0	0	0	0	0	507	0	0	0	0	
2	0	0	0	0	0	509	0	0	0	0	
3	0	0	0	0	0	510	0	0	0	0	
4	0	0	0	0	0	511	0	0	0	0	
5	0	0	0	0	0	510	0	0	0	0	
6	0	0	0	0	1	510	0	0	0	0	
7	0	0	0	0	0	510	0	0	0	0	
8	0	0	0	0	0	511	0	0	0	0	
9	0	0	0	0	0	511	0	0	0	0	
10	0	0	0	0	0	512	0	0	0	0	
11	0	0	0	0	0	511	0	0	0	0	
12	0	0	0	0	0	512	0	0	0	0	
13	0	0	0	0	0	512	0	0	0	0	
14	0	0	0	0	1	513	0	0	0	0	
15	0	0	0	0	0	513	0	0	0	0	
0	0	0	0	0	0	513	0	0	0	0	
1	0	0	0	0	0	515	0	0	0	0	
2	0	0	0	0	0	517	0	0	0	0	
3	0	0	0	0	0	519	0	0	0	0	
4	0	0	0	0	0	521	0	0	0	0	
5	0	0	0	0	0	522	0	0	0	0	
6	0	0	0	0	2	523	0	0	0	0	
7	0	0	0	0	0	523	0	0	0	0	
8	0	0	0	0	0	522	0	0	0	0	
9	0	0	0	0	0	520	0	0	0	0	
10	0	0	0	0	0	520	0	0	0	0	
11	0	0	0	0	0	520	0	0	0	0	
12	0	0	0	0	0	521	0	0	0	0	
13	0	0	0	0	0	522	0	0	0	0	
14	0	0	0	0	2	522	0	0	0	0	
15	0	0	0	0	0	522	0	0	0	0	
0	0	0	0	0	0	522	0	0	0	0	
1	0	0	0	0	0	522	0	0	0	0	
2	0	0	0	0	0	523	0	0	0	0	
3	0	0	0	0	0	524	0	0	0	0	
4	0	0	0	0	0	525	0	0	0	0	
5	0	0	0	0	0	526	0	0	0	0	
6	0	0	0	0	3	526	0	0	0	0	
7	0	0	0	0	0	525	0	0	0	0	
8	0	0	0	0	0	524	0	0	0	0	
9	0	0	0	0	0	523	0	0	0	0	
10	0	0	0	0	0	521	0	0	0	0	
11	0	0	0	0	0	520	0	0	0	0	
12	0	0	0	0	0	519	0	0	0	0	
13	0	0	0	0	0	518	0	0	0	0	
14	0	0	0	0	2	518	0	0	0	0	
15	0	0	0	0	0	519	0	0	0	0	
0	0	0	0	0	0	518	0	0	0	0	
1	0	0	0	0	0	518	0	0	0	0	
2	0	0	0	0	0	517	0	0	0	0	
3	0	0	0	0	0	517	0	0	0	0	
4	0	0	0	0	0	517	0	0	0	0	
5	0	0	0	0	0	518	0	0	0	0	
6	0	0	0	0	2	518	0	0	0	0	
7	0	0	0	0	0	518	0	0	0	0	
8	0	0	0	0	0	516	0	0	0	0	
9	0	0	0	0	0	516	0	0	0	0	
10	0	0	0	0	0	515	0	0	0	0	
11	0	0	0	0	0	515	0	0	0	0	
12	0	0	0	0	0	515	0	0	0	0	
13	0	0	0	0	0	514	0	0	0	0	
14	0	0	0	0	3	512	0	0	0	0	
15	0	0	0	0	0	511	0	0	0	0	
0	0	0	0	0	0	510	0	0	0	0	
1	0	0	0	0	0	509	0	0	0	0	
2	0	0	0	0	0	508	0	0	0	0	
3	0	0	0	0	0	507	0	0	0	0	
4	0	0	0	0	0	506	0	0	0	0	
5	0	0	0	0	0	505	0	0	0	0	
6	0	0	0	0	2	505	0	0	0	0	
7	0	0	0	0	0	504	0	0	0	0	
8	0	0	0	0	0	503	0	0	0	0	
9	0	0	0	0	0	500	0	0	0	0	
10	0	0	0	0	0	499	0	0	0	0	
11	0	0	0	0	0	498	0	0	0	0	
12	0	0	0	0	0	496	0	0	0	0	
13	0	0	0	0	0	496	0	0	0	0	
14	0	0	0	0	2	495	0	0	0	0	
15	0	0	0	0	0	493	0	0	0	0	
0	0	0	0	0	0	492	0	0	0	0	
1	0	0	0	0	0	490	0	0	0	0	
2	0	0	0	0	0	489	0	0	0	0	
3	0	0	0	0	0	487	0	0	0	0	
4	0	0	0	0	0	486	0	0	0	0	
5	0	0	0	0	0	483	0	0	0	0	
6	0	0	0	0	2	481	0	0	0	0	
7	0	0	0	0	0	481	0	0	0	0	
8	0	0	0	0	0	480	0	0	0	0	
9	0	0	0	0	0	479	0	0	0	0	
10	0	0	0	0	0	478	0	0	0	0	
11	0	0	0	0	0	477	0	0	0	0	
12	0	0	0	0	0	475	0	0	0	0	
13	0	0	0	0	0	474	0	0	0	0	
14	0	0	0	0	2	472	0	0	0	0	
15	0	0	0	0	0	471	0	0	0	0	
0	0	0	0	0	0	470	0	0	0	0	
1	0	0	0	0	0	470	0	0	0	0	
2	0	0	0	0	0	470	0	0	0	0	
3	0	0	0	0	0	470	0	0	0	0	
4	0	0	0	0	0	471	0	0	0	0	
5	0	0	0	0	0	472	0	0	0	0	
6	0	0	0	0	2	473	0	0	0	0	
7	0	0	0	0	0	474	0	0	0	0	
8	0	0	0	0	0	475	0	0	0	0	
9	0	0	0	0	0	475	0	0	0	0	
10	0	0	0	0	0	476	0	0	0	0	
11	0	0	0	0	0	476	0	0	0	0	
12	0	0	0	0	0	475	0	0	0	0	
13	0	0	0	0	0	475	0	0	0	0	
14	0	0	0	0	1	476	0	0	0	0	
15	0	0	0	0	0	476	0	0	0	0	
0	0	0	0	0	0	476	0	0	0	0	
1	0	0	0	0	0	477	0	0	0	0	
2	0	0	0	0	0	477	0	0	0	0	
3	0	0	0	0	0	477	0	0	0	0	
4	0	0	0	0	0	476	0	0	0	0	
5	0	0	0	0	0	476	0	0	0	0	
6	0	0	0	0	1	476	0	0	0	0	
7	0	0	0	0	0	475	0	0	0	0	
8	0	0	0	0	0	475	0	0	0	0	
9	0	0	0	0	0	475	0	0	0	0	
10	0	0	0	0	0	476	0	0	0	0	
11	0	0	0	0	0	475	0	0	0	0	
12	0	0	0	0	0	475	0	0	0	0	
13	0	0	0	0	0	475	0	0	0	0	
14	0	0	0	0	1	476	0	0	0	0	
15	0	0	0	0	0	477	0	0	0	0	
0	0	0	0	0	0	479	0	0	0	0	
1	0	0	0	0	0	481	0	0	0	0	
2	0	0	0	0	0	482	0	0	0	0	
3	0	0	0	0	0	484	0	0	0	0	
4	0	0	0	0	0	486	0	0	0	0	
5	0	0	0	0	0	487	0	0	0	0	
6	0	0	0	0	2	488	0	0	0	0	
7	0	0	0	0	0	488	0	0	0	0	
8	0	0	0	0	0	489	0	0	0	0	
9	0	0	0	0	0	490	0	0	0	0	
10	0	0	0	0	0	492	0	0	0	0	
11	0	0	0	0	0	492	0	0	0	0	
12	0	0	0	0	0	492	0	0	0	0	
13	0	0	0	0	0	492	0	0	0	0	
14	0	0	0	0	2	492	0	0	0	0	
15	0	0	0	0	0	492	0	0	0	0	
0	0	0	0	0	0	493	0	0	0	0	
1	0	0	0	0	0	493	0	0	0	0	
2	0	0	0	0	0	494	0	0	0	0	
3	0	0	0	0	0	495	0	0	0	0	
4	0	0	0	0	0	497	0	0	0	0	
5	0	0	0	0	0	498	0	0	0	0	
6	0	0	0	0	2	499	0	0	0	0	
7	0	0	0	0	0	500	0	0	0	0	
8	0	0	0	0	0	501	0	0	0	0	
9	0	0	0	0	0	503	0	0	0	0	
10	0	0	0	0	0	505	0	0	0	0	
11	0	0	0	0	0	507	0	0	0	0	
12	0	0	0	0	0	509	0	0	0	0	
13	0	0	0	0	0	511	0	0	0	0	
14	0	0	0	0	2	512	0	0	0	0	
15	0	0	0	0	0	513	0	0	0	0	
0	0	0	0	0	0	516	0	0	0	0	
1	0	0	0	0	0	517	0	0	0	0	
2	0	0	0	0	0	518	0	0	0	0	
3	0	0	0	0	0	521	0	0	0	0	
4	0	0	0	0	0	524	0	0	0	0	
5	0	0	0	0	0	525	0	0	0	0	
6	0	0	0	0	3	527	0	0	0	0	
7	0	0	0	0	0	528	0	0	0	0	
8	0	0	0	0	0	530	0	0	0	0	
9	0	0	0	0	0	532	0	0	0	0	
10	0	0	0	0	0	534	0	0	0	0	
11	0	0	0	0	0	536	0	0	0	0	
12	0	0	0	0	0	538	0	0	0	0	
13	0	0	0	0	0	539	0	0	0	0	
14	0	0	0	0	2	539	0	0	0	0	
15	0	0	0	0	0	538	0	0	0	0	
0	0	0	0	0	0	538	0	0	0	0	
1	0	0	0	0	0	537	0	0	0	0	
2	0	0	0	0	0	536	0	0	0	0	
3	0	0	0	0	0	535	0	0	0	0	
4	0	0	0	0	0	533	0	0	0	0	
5	0	0	0	0	0	532	0	0	0	0	
6	0	0	0	0	2	532	0	0	0	0	
7	0	0	0	0	0	533	0	0	0	0	
8	0	0	0	0	0	534	0	0	0	0	
9	0	0	0	0	0	536	0	0	0	0	
10	0	0	0	0	0	537	0	0	0	0	
11	0	0	0	0	0	539	0	0	0	0	
12	0	0	0	0	0	541	0	0	0	0	
13	0	0	0	0	0	543	0	0	0	0	
14	0	0	0	0	2	546	0	0	0	0	
15	0	0	0	0	0	549	0	0	0	0	
0	0	0	0	0	0	551	0	0	0	0	
1	0	0	0	0	0	554	0	0	0	0	
2	0	0	0	0	0	557	0	0	0	0	
3	0	0	0	0	0	558	0	0	0	0	
4	0	0	0	0	0	558	0	0	0	0	
5	0	0	0	0	0	559	0	0	0	0	
6	0	0	0	0	2	559	0	0	0	0	
7	0	0	0	0	0	560	0	0	0	0	
8	0	0	0	0	0	561	0	0	0	0	
9	0	0	0	0	0	560	0	0	0	0	
10	0	0	0	0	0	561	0	0	0	0	
11	0	0	0	0	0	563	0	0	0	0	
12	0	0	0	0	0	563	0	0	0	0	
13	0	0	0	0	0	561	0	0	0	0	
14	0	0	0	0	3	559	0	0	0	0	
15	0	0	0	0	0	558	0	0	0	0	
0	0	0	0	0	0	558	0	0	0	0	
1	0	0	0	0	0	559	0	0	0	0	
2	0	0	0	0	0	560	0	0	0	0	
3	0	0	0	0	0	562	0	0	0	0	
4	0	0	0	0	0	564	0	0	0	0	
5	0	0	0	0	0	565	0	0	0	0	
6	0	0	0	0	1	566	0	0	0	0	
7	0	0	0	0	0	567	0	0	0	0	
8	0	0	0	0	0	569	0	0	0	0	
9	0	0	0	0	0	569	0	0	0	0	
10	0	0	0	0	0	570	0	0	0	0	
11	0	0	0	0	0	571	0	0	0	0	
12	0	0	0	0	0	572	0	0	0	0	
13	0	0	0	0	0	573	0	0	0	0	
14	0	0	0	0	1	573	0	0	0	0	
15	0	0	0	0	0	574	0	0	0	0	
0	0	0	0	0	0	575	0	0	0	0	
1	0	0	0	0	0	574	0	0	0	0	
2	0	0	0	0	0	572	0	0	0	0	
3	0	0	0	0	0	570	0	0	0	0	
4	0	0	0	0	0	567	0	0	0	0	
5	0	0	0	0	0	565	0	0	0	0	
6	0	0	0	0	1	565	0	0	0	0	
7	0	0	0	0	0	565	0	0	0	0	
8	0	0	0	0	0	566	0	0	0	0	
9	0	0	0	0	0	567	0	0	0	0	
10	0	0	0	0	0	567	0	0	0	0	
11	0	0	0	0	0	567	0	0	0	0	
12	0	0	0	0	0	568	0	0	0	0	
13	0	0	0	0	0	568	0	0	0	0	
14	0	0	0	0	2	567	0	0	0	0	
15	0	0	0	0	0	567	0	0	0	0	
0	0	0	0	0	0	568	0	0	0	0	
1	0	0	0	0	0	568	0	0	0	0	
2	0	0	0	0	0	569	0	0	0	0	
3	0	0	0	0	0	569	0	0	0	0	
4	0	0	0	0	0	569	0	0	0	0	
5	0	0	0	0	0	569	0	0	0	0	
6	0	0	0	0	3	568	0	0	0	0	
7	0	0	0	0	0	568	0	0	0	0	
8	0	0	0	0	0	567	0	0	0	0	
9	0	0	0	0	0	566	0	0	0	0	
10	0	0	0	0	0	565	0	0	0	0	
11	0	0	0	0	0	565	0	0	0	0	
12	0	0	0	0	0	565	0	0	0	0	
13	0	0	0	0	0	567	0	0	0	0	
14	0	0	0	0	3	568	0	0	0	0	
15	0	0	0	0	0	570	0	0	0	0	
0	0	0	0	0	0	570	0	0	0	0	
1	0	0	0	0	0	571	0	0	0	0	
2	0	0	0	0	0	571	0	0	0	0	
3	0	0	0	0	0	570	0	0	0	0	
4	0	0	0	0	0	569	0	0	0	0	
5	0	0	0	0	0	568	0	0	0	0	
6	0	0	0	0	2	567	0	0	0	0	
7	0	0	0	0	0	565	0	0	0	0	
8	0	0	0	0	0	563	0	0	0	0	
9	0	0	0	0	0	563	0	0	0	0	
10	0	0	0	0	0	561	0	0	0	0	
11	0	0	0	0	0	561	0	0	0	0	
12	0	0	0	0	0	560	0	0	0	0	
13	0	0	0	0	0	560	0	0	0	0	
14	0	0	0	0	2	558	0	0	0	0	
15	0	0	0	0	0	558	0	0	0	0	
0	0	0	0	0	0	558	0	0	0	0	
1	0	0	0	0	0	558	0	0	0	0	
2	0	0	0	0	0	557	0	0	0	0	
3	0	0	0	0	0	557	0	0	0	0	
4	0	0	0	0	0	556	0	0	0	0	
5	0	0	0	0	0	557	0	0	0	0	
6	0	0	0	0	2	556	0	0	0	0	
7	0	0	0	0	0	556	0	0	0	0	
8	0	0	0	0	0	558	0	0	0	0	
9	0	0	0	0	0	558	0	0	0	0	
10	0	0	0	0	0	558	0	0	0	0	
11	0	0	0	0	0	558	0	0	0	0	
12	0	0	0	0	0	557	0	0	0	0	
13	0	0	0	0	0	556	0	0	0	0	
14	0	0	0	0	3	555	0	0	0	0	
15	0	0	0	0	0	555	0	0	0	0	
0	0	0	0	0	0	554	0	0	0	0	
1	0	0	0	0	0	553	0	0	0	0	
2	0	0	0	0	0	551	0	0	0	0	
3	0	0	0	0	0	550	0	0	0	0	
4	0	0	0	0	0	549	0	0	0	0	
5	0	0	0	0	0	547	0	0	0	0	
6	0	0	0	0	3	544	0	0	0	0	
7	0	0	0	0	0	540	0	0	0	0	
8	0	0	0	0	0	536	0	0	0	0	
9	0	0	0	0	0	533	0	0	0	0	
10	0	0	0	0	0	528	0	0	0	0	
11	0	0	0	0	0	524	0	0	0	0	
12	0	0	0	0	0	520	0	0	0	0	
13	0	0	0	0	0	517	0	0	0	0	
14	0	0	0	0	2	515	0	0	0	0	
15	0	0	0	0	0	514	0	0	0	0	
0	0	0	0	0	0	516	0	0	0	0	
1	0	0	0	0	0	520	0	0	0	0	
2	0	0	0	0	0	525	0	0	0	0	
3	0	0	0	0	0	530	0	0	0	0	
4	0	0	0	0	0	537	0	0	0	0	
5	0	0	0	0	0	547	0	0	0	0	
6	0	0	0	0	3	556	0	0	0	0	
7	0	0	0	0	0	567	0	0	0	0	
8	0	0	0	0	0	579	0	0	0	0	
9	0	0	0	0	0	591	0	0	0	0	
10	0	0	0	0	0	601	0	0	0	0	
11	0	0	0	0	0	612	0	0	0	0	
12	0	0	0	0	0	624	1	0	0	0	
13	0	0	0	0	0	637	1	0	0	0	
14	0	0	0	0	2	653	0	0	0	0	
15	0	0	0	0	0	668	1	0	0	0	
0	0	0	0	0	0	684	1	0	0	0	
1	0	0	0	0	0	702	1	0	0	0	
2	0	0	0	0	0	723	1	0	0	0	
3	0	0	0	0	0	748	1	0	0	0	
4	0	0	0	0	0	775	1	0	0	0	
5	0	0	0	0	0	801	1	0	0	0	
6	0	0	0	0	1	828	2	0	0	0	
7	0	0	0	0	0	856	2	0	0	0	
8	0	0	0	0	0	883	2	0	0	0	
9	0	0	0	0	0	906	2	0	0	0	
10	0	0	0	0	0	927	2	0	0	0	
11	0	0	0	0	0	946	2	0	0	0	
12	0	0	0	0	0	963	3	0	0	0	
13	0	0	0	0	0	976	3	0	0	0	
14	0	0	0	0	1	987	3	0	0	0	
15	0	0	0	0	0	993	3	0	0	0	
0	0	0	0	0	0	992	3	0	0	0	
1	0	0	0	0	0	983	3	0	0	0	
2	0	0	0	0	0	967	3	0	0	0	
3	0	0	0	0	0	947	2	0	0	0	
4	0	0	0	0	0	920	2	0	0	0	
5	0	0	0	0	0	886	2	0	0	0	
6	0	0	0	0	1	845	2	0	0	0	
7	0	0	0	0	0	798	1	0	0	0	
8	0	0	0	0	0	749	1	0	0	0	
9	0	0	0	0	0	704	1	0	0	0	
10	0	0	0	0	0	663	1	0	0	0	
11	0	0	0	0	0	627	1	0	0	0	
12	0	0	0	0	0	596	0	0	0	0	
13	0	0	0	0	0	569	0	0	0	0	
14	0	0	0	0	2	543	0	0	0	0	
15	0	0	0	0	0	518	0	0	0	0	
0	0	0	0	0	0	496	0	0	0	0	
1	0	0	0	0	0	476	0	0	0	0	
2	0	0	0	0	0	458	0	0	0	0	
3	0	0	0	0	0	441	0	0	0	0	
4	0	0	0	0	0	425	0	0	0	0	
5	0	0	0	0	0	408	0	0	0	0	
6	0	0	0	0	3	391	0	0	0	0	
7	0	0	0	0	0	374	0	0	0	0	
8	0	0	0	0	0	356	0	0	0	0	
9	0	0	0	0	0	339	0	0	0	0	
10	0	0	0	0	0	325	0	0	0	0	
11	0	0	0	0	0	314	0	0	0	0	
12	0	0	0	0	0	307	0	0	0	0	
13	0	0	0	0	0	303	0	0	0	0	
14	0	0	0	0	3	303	0	0	0	0	
15	0	0	0	0	0	307	0	0	0	0	
0	0	0	0	0	0	313	0	0	0	0	
1	0	0	0	0	0	323	0	0	0	0	
2	0	0	0	0	0	334	0	0	0	0	
3	0	0	0	0	0	345	0	0	0	0	
4	0	0	0	0	0	355	0	0	0	0	
5	0	0	0	0	0	364	0	0	0	0	
6	0	0	0	0	2	372	0	0	0	0	
7	0	0	0	0	0	381	0	0	0	0	
8	0	0	0	0	0	389	0	0	0	0	
9	0	0	0	0	0	397	0	0	0	0	
10	0	0	0	0	0	407	0	0	0	0	
11	0	0	0	0	0	415	0	0	0	0	
12	0	0	0	0	0	423	0	0	0	0	
13	0	0	0	0	0	429	0	0	0	0	
14	0	0	0	0	3	433	0	0	0	0	
15	0	0	0	0	0	438	0	0	0	0	
0	0	0	0	0	0	442	0	0	0	0	
1	0	0	0	0	0	444	0	0	0	0	
2	0	0	0	0	0	447	0	0	0	0	
3	0	0	0	0	0	449	0	0	0	0	
4	0	0	0	0	0	451	0	0	0	0	
5	0	0	0	0	0	452	0	0	0	0	
6	0	0	0	0	2	454	0	0	0	0	
7	0	0	0	0	0	455	0	0	0	0	
8	0	0	0	0	0	456	0	0	0	0	
9	0	0	0	0	0	457	0	0	0	0	
10	0	0	0	0	0	457	0	0	0	0	
11	0	0	0	0	0	458	0	0	0	0	
12	0	0	0	0	0	458	0	0	0	0	
13	0	0	0	0	0	460	0	0	0	0	
14	0	0	0	0	2	461	0	0	0	0	
15	0	0	0	0	0	462	0	0	0	0	
0	0	0	0	0	0	464	0	0	0	0	
1	0	0	0	0	0	464	0	0	0	0	
2	0	0	0	0	0	465	0	0	0	0	
3	0	0	0	0	0	466	0	0	0	0	
4	0	0	0	0	0	467	0	0	0	0	
5	0	0	0	0	0	468	0	0	0	0	
6	0	0	0	0	3	470	0	0	0	0	
7	0	0	0	0	0	473	0	0	0	0	
8	0	0	0	0	0	475	0	0	0	0	
9	0	0	0	0	0	476	0	0	0	0	
10	0	0	0	0	0	476	0	0	0	0	
11	0	0	0	0	0	477	0	0	0	0	
12	0	0	0	0	0	480	0	0	0	0	
13	0	0	0	0	0	481	0	0	0	0	
14	0	0	0	0	2	482	0	0	0	0	
15	0	0	0	0	0	483	0	0	0	0	
0	0	0	0	0	0	483	0	0	0	0	
1	0	0	0	0	0	483	0	0	0	0	
2	0	0	0	0	0	483	0	0	0	0	
3	0	0	0	0	0	483	0	0	0	0	
4	0	0	0	0	0	484	0	0	0	0	
5	0	0	0	0	0	484	0	0	0	0	
6	0	0	0	0	2	484	0	0	0	0	
7	0	0	0	0	0	485	0	0	0	0	
8	0	0	0	0	0	486	0	0	0	0	
9	0	0	0	0	0	487	0	0	0	0	
10	0	0	0	0	0	487	0	0	0	0	
11	0	0	0	0	0	487	0	0	0	0	
12	0	0	0	0	0	487	0	0	0	0	
13	0	0	0	0	0	487	0	0	0	0	
14	0	0	0	0	2	487	0	0	0	0	
15	0	0	0	0	0	489	0	0	0	0	
0	0	0	0	0	0	491	0	0	0	0	
1	0	0	0	0	0	492	0	0	0	0	
2	0	0	0	0	0	492	0	0	0	0	
3	0	0	0	0	0	493	0	0	0	0	
4	0	0	0	0	0	493	0	0	0	0	
5	0	0	0	0	0	494	0	0	0	0	
6	0	0	0	0	1	496	0	0	0	0	
7	0	0	0	0	0	496	0	0	0	0	
8	0	0	0	0	0	497	0	0	0	0	
9	0	0	0	0	0	497	0	0	0	0	
10	0	0	0	0	0	497	0	0	0	0	
11	0	0	0	0	0	496	0	0	0	0	
12	0	0	0	0	0	497	0	0	0	0	
13	0	0	0	0	0	497	0	0	0	0	
14	0	0	0	0	1	497	0	0	0	0	
15	0	0	0	0	0	497	0	0	0	0	
0	0	0	0	0	0	498	0	0	0	0	
1	0	0	0	0	0	500	0	0	0	0	
2	0	0	0	0	0	502	0	0	0	0	
3	0	0	0	0	0	502	0	0	0	0	
4	0	0	0	0	0	503	0	0	0	0	
5	0	0	0	0	0	503	0	0	0	0	
6	0	0	0	0	3	503	0	0	0	0	
7	0	0	0	0	0	504	0	0	0	0	
8	0	0	0	0	0	504	0	0	0	0	
9	0	0	0	0	0	504	0	0	0	0	
10	0	0	0	0	0	505	0	0	0	0	
11	0	0	0	0	0	506	0	0	0	0	
12	0	0	0	0	0	506	0	0	0	0	
13	0	0	0	0	0	506	0	0	0	0	
14	0	0	0	0	2	507	0	0	0	0	
15	0	0	0	0	0	508	0	0	0	0	
0	0	0	0	0	0	509	0	0	0	0	
1	0	0	0	0	0	509	0	0	0	0	
2	0	0	0	0	0	508	0	0	0	0	
3	0	0	0	0	0	508	0	0	0	0	
4	0	0	0	0	0	508	0	0	0	0	
5	0	0	0	0	0	508	0	0	0	0	
6	0	0	0	0	2	509	0	0	0	0	
7	0	0	0	0	0	509	0	0	0	0	
8	0	0	0	0	0	508	0	0	0	0	
9	0	0	0	0	0	508	0	0	0	0	
10	0	0	0	0	0	508	0	0	0	0	
11	0	0	0	0	0	508	0	0	0	0	
12	0	0	0	0	0	506	0	0	0	0	
13	0	0	0	0	0	504	0	0	0	0	
14	0	0	0	0	2	504	0	0	0	0	
15	0	0	0	0	0	503	0	0	0	0	
0	0	0	0	0	0	502	0	0	0	0	
1	0	0	0	0	0	502	0	0	0	0	
2	0	0	0	0	0	502	0	0	0	0	
3	0	0	0	0	0	502	0	0	0	0	
4	0	0	0	0	0	503	0	0	0	0	
5	0	0	0	0	0	504	0	0	0	0	
6	0	0	0	0	3	504	0	0	0	0	
7	0	0	0	0	0	504	0	0	0	0	
8	0	0	0	0	0	505	0	0	0	0	
9	0	0	0	0	0	506	0	0	0	0	
10	0	0	0	0	0	507	0	0	0	0	
11	0	0	0	0	0	506	0	0	0	0	
12	0	0	0	0	0	506	0	0	0	0	
13	0	0	0	0	0	507	0	0	0	0	
14	0	0	0	0	2	508	0	0	0	0	
15	0	0	0	0	0	507	0	0	0	0	
0	0	0	0	0	0	508	0	0	0	0	
1	0	0	0	0	0	507	0	0	0	0	
2	0	0	0	0	0	506	0	0	0	0	
3	0	0	0	0	0	505	0	0	0	0	
4	0	0	0	0	0	505	0	0	0	0	
5	0	0	0	0	0	506	0	0	0	0	
6	0	0	0	0	2	507	0	0	0	0	
7	0	0	0	0	0	507	0	0	0	0	
8	0	0	0	0	0	507	0	0	0	0	
9	0	0	0	0	0	508	0	0	0	0	
10	0	0	0	0	0	507	0	0	0	0	
11	0	0	0	0	0	505	0	0	0	0	
12	0	0	0	0	0	505	0	0	0	0	
13	0	0	0	0	0	506	0	0	0	0	
14	0	0	0	0	2	505	0	0	0	0	
15	0	0	0	0	0	506	0	0	0	0	
0	0	0	0	0	0	509	0	0	0	0	
1	0	0	0	0	0	509	0	0	0	0	
2	0	0	0	0	0	510	0	0	0	0	
3	0	0	0	0	0	509	0	0	0	0	
4	0	0	0	0	0	510	0	0	0	0	
5	0	0	0	0	0	510	0	0	0	0	
6	0	0	0	0	2	510	0	0	0	0	
7	0	0	0	0	0	511	0	0	0	0	
8	0	0	0	0	0	509	0	0	0	0	
9	0	0	0	0	0	506	0	0	0	0	
10	0	0	0	0	0	504	0	0	0	0	
11	0	0	0	0	0	501	0	0	0	0	
12	0	0	0	0	0	499	0	0	0	0	
13	0	0	0	0	0	497	0	0	0	0	
14	0	0	0	0	3	496	0	0	0	0	
15	0	0	0	0	0	495	0	0	0	0	
0	0	0	0	0	0	495	0	0	0	0	
1	0	0	0	0	0	494	0	0	0	0	
2	0	0	0	0	0	494	0	0	0	0	
3	0	0	0	0	0	494	0	0	0	0	
4	0	0	0	0	0	494	0	0	0	0	
5	0	0	0	0	0	492	0	0	0	0	
6	0	0	0	0	2	491	0	0	0	0	
7	0	0	0	0	0	491	0	0	0	0	
8	0	0	0	0	0	490	0	0	0	0	
9	0	0	0	0	0	489	0	0	0	0	
10	0	0	0	0	0	489	0	0	0	0	
11	0	0	0	0	0	488	0	0	0	0	
12	0	0	0	0	0	490	0	0	0	0	
13	0	0	0	0	0	491	0	0	0	0	
14	0	0	0	0	1	492	0	0	0	0	
15	0	0	0	0	0	492	0	0	0	0	
0	0	0	0	0	0	492	0	0	0	0	
1	0	0	0	0	0	492	0	0	0	0	
2	0	0	0	0	0	492	0	0	0	0	
3	0	0	0	0	0	494	0	0	0	0	
4	0	0	0	0	0	495	0	0	0	0	
5	0	0	0	0	0	495	0	0	0	0	
6	0	0	0	0	1	494	0	0	0	0	
7	0	0	0	0	0	495	0	0	0	0	
8	0	0	0	0	0	496	0	0	0	0	
9	0	0	0	0	0	495	0	0	0	0	
10	0	0	0	0	0	495	0	0	0	0	
11	0	0	0	0	0	492	0	0	0	0	
12	0	0	0	0	0	490	0	0	0	0	
13	0	0	0	0	0	490	0	0	0	0	
14	0	0	0	0	1	489	0	0	0	0	
15	0	0	0	0	0	488	0	0	0	0	
0	0	0	0	0	0	489	0	0	0	0	
1	0	0	0	0	0	491	0	0	0	0	
2	0	0	0	0	0	492	0	0	0	0	
3	0	0	0	0	0	493	0	0	0	0	
4	0	0	0	0	0	495	0	0	0	0	
5	0	0	0	0	0	495	0	0	0	0	
6	0	0	0	0	2	494	0	0	0	0	
7	0	0	0	0	0	494	0	0	0	0	
8	0	0	0	0	0	494	0	0	0	0	
9	0	0	0	0	0	495	0	0	0	0	
10	0	0	0	0	0	496	0	0	0	0	
11	0	0	0	0	0	497	0	0	0	0	
12	0	0	0	0	0	497	0	0	0	0	
13	0	0	0	0	0	497	0	0	0	0	
14	0	0	0	0	2	498	0	0	0	0	
15	0	0	0	0	0	497	0	0	0	0	
0	0	0	0	0	0	495	0	0	0	0	
1	0	0	0	0	0	494	0	0	0	0	
2	0	0	0	0	0	494	0	0	0	0	
3	0	0	0	0	0	494	0	0	0	0	
4	0	0	0	0	0	495	0	0	0	0	
5	0	0	0	0	0	492	0	0	0	0	
6	0	0	0	0	2	491	0	0	0	0	
7	0	0	0	0	0	491	0	0	0	0	
8	0	0	0	0	0	491	0	0	0	0	
9	0	0	0	0	0	490	0	0	0	0	
10	0	0	0	0	0	491	0	0	0	0	
11	0	0	0	0	0	491	0	0	0	0	
12	0	0	0	0	0	491	0	0	0	0	
13	0	0	0	0	0	492	0	0	0	0	
14	0	0	0	0	2	492	0	0	0	0	
15	0	0	0	0	0	492	0	0	0	0	
0	0	0	0	0	0	494	0	0	0	0	
1	0	0	0	0	0	495	0	0	0	0	
2	0	0	0	0	0	497	0	0	0	0	
3	0	0	0	0	0	499	0	0	0	0	
4	0	0	0	0	0	499	0	0	0	0	
5	0	0	0	0	0	498	0	0	0	0	
6	0	0	0	0	2	497	0	0	0	0	
7	0	0	0	0	0	497	0	0	0	0	
8	0	0	0	0	0	497	0	0	0	0	
9	0	0	0	0	0	496	0	0	0	0	
10	0	0	0	0	0	496	0	0	0	0	
11	0	0	0	0	0	496	0	0	0	0	
12	0	0	0	0	0	496	0	0	0	0	
13	0	0	0	0	0	495	0	0	0	0	
14	0	0	0	0	3	496	0	0	0	0	
15	0	0	0	0	0	495	0	0	0	0	
0	0	0	0	0	0	493	0	0	0	0	
1	0	0	0	0	0	492	0	0	0	0	
2	0	0	0	0	0	491	0	0	0	0	
3	0	0	0	0	0	490	0	0	0	0	
4	0	0	0	0	0	488	0	0	0	0	
5	0	0	0	0	0	486	0	0	0	0	
6	0	0	0	0	2	484	0	0	0	0	
7	0	0	0	0	0	483	0	0	0	0	
8	0	0	0	0	0	482	0	0	0	0	
9	0	0	0	0	0	481	0	0	0	0	
10	0	0	0	0	0	480	0	0	0	0	
11	0	0	0	0	0	480	0	0	0	0	
12	0	0	0	0	0	478	0	0	0	0	
13	0	0	0	0	0	475	0	0	0	0	
14	0	0	0	0	2	472	0	0	0	0	
15	0	0	0	0	0	470	0	0	0	0	
0	0	0	0	0	0	467	0	0	0	0	
1	0	0	0	0	0	465	0	0	0	0	
2	0	0	0	0	0	464	0	0	0	0	
3	0	0	0	0	0	466	0	0	0	0	
4	0	0	0	0	0	467	0	0	0	0	
5	0	0	0	0	0	468	0	0	0	0	
6	0	0	0	0	2	469	0	0	0	0	
7	0	0	0	0	0	470	0	0	0	0	
8	0	0	0	0	0	471	0	0	0	0	
9	0	0	0	0	0	472	0	0	0	0	
10	0	0	0	0	0	475	0	0	0	0	
11	0	0	0	0	0	477	0	0	0	0	
12	0	0	0	0	0	479	0	0	0	0	
13	0	0	0	0	0	481	0	0	0	0	
14	0	0	0	0	2	483	0	0	0	0	
15	0	0	0	0	0	484	0	0	0	0	
0	0	0	0	0	0	485	0	0	0	0	
1	0	0	0	0	0	487	0	0	0	0	
2	0	0	0	0	0	487	0	0	0	0	
3	0	0	0	0	0	487	0	0	0	0	
4	0	0	0	0	0	487	0	0	0	0	
5	0	0	0	0	0	487	0	0	0	0	
6	0	0	0	0	3	487	0	0	0	0	
7	0	0	0	0	0	489	0	0	0	0	
8	0	0	0	0	0	491	0	0	0	0	
9	0	0	0	0	0	493	0	0	0	0	
10	0	0	0	0	0	495	0	0	0	0	
11	0	0	0	0	0	496	0	0	0	0	
12	0	0	0	0	0	498	0	0	0	0	
13	0	0	0	0	0	500	0	0	0	0	
14	0	0	0	0	1	502	0	0	0	0	
15	0	0	0	0	0	504	0	0	0	0	
0	0	0	0	0	0	507	0	0	0	0	
1	0	0	0	0	0	511	0	0	0	0	
2	0	0	0	0	0	512	0	0	0	0	
3	0	0	0	0	0	514	0	0	0	0	
4	0	0	0	0	0	516	0	0	0	0	
5	0	0	0	0	0	519	0	0	0	0	
6	0	0	0	0	1	519	0	0	0	0	
7	0	0	0	0	0	520	0	0	0	0	
8	0	0	0	0	0	522	0	0	0	0	
9	0	0	0	0	0	523	0	0	0	0	
10	0	0	0	0	0	524	0	0	0	0	
11	0	0	0	0	0	526	0	0	0	0	
12	0	0	0	0	0	527	0	0	0	0	
13	0	0	0	0	0	529	0	0	0	0	
14	0	0	0	0	1	531	0	0	0	0	
15	0	0	0	0	0	533	0	0	0	0	
0	0	0	0	0	0	535	0	0	0	0	
1	0	0	0	0	0	537	0	0	0	0	
2	0	0	0	0	0	540	0	0	0	0	
3	0	0	0	0	0	541	0	0	0	0	
4	0	0	0	0	0	543	0	0	0	0	
5	0	0	0	0	0	546	0	0	0	0	
6	0	0	0	0	2	548	0	0	0	0	
7	0	0	0	0	0	548	0	0	0	0	
8	0	0	0	0	0	549	0	0	0	0	
9	0	0	0	0	0	550	0	0	0	0	
10	0	0	0	0	0	551	0	0	0	0	
11	0	0	0	0	0	551	0	0	0	0	
12	0	0	0	0	0	551	0	0	0	0	
13	0	0	0	0	0	551	0	0	0	0	
14	0	0	0	0	2	551	0	0	0	0	
15	0	0	0	0	0	551	0	0	0	0	
0	0	0	0	0	0	551	0	0	0	0	
1	0	0	0	0	0	550	0	0	0	0	
2	0	0	0	0	0	550	0	0	0	0	
3	0	0	0	0	0	551	0	0	0	0	
4	0	0	0	0	0	551	0	0	0	0	
5	0	0	0	0	0	551	0	0	0	0	
6	0	0	0	0	2	552	0	0	0	0	
7	0	0	0	0	0	554	0	0	0	0	
8	0	0	0	0	0	556	0	0	0	0	
9	0	0	0	0	0	558	0	0	0	0	
10	0	0	0	0	0	559	0	0	0	0	
11	0	0	0	0	0	560	0	0	0	0	
12	0	0	0	0	0	562	0	0	0	0	
13	0	0	0	0	0	563	0	0	0	0	
14	0	0	0	0	2	563	0	0	0	0	
15	0	0	0	0	0	561	0	0	0	0	
0	0	0	0	0	0	560	0	0	0	0	
1	0	0	0	0	0	560	0	0	0	0	
2	0	0	0	0	0	560	0	0	0	0	
3	0	0	0	0	0	560	0	0	0	0	
4	0	0	0	0	0	559	0	0	0	0	
5	0	0	0	0	0	558	0	0	0	0	
6	0	0	0	0	2	557	0	0	0	0	
7	0	0	0	0	0	555	0	0	0	0	
8	0	0	0	0	0	553	0	0	0	0	
9	0	0	0	0	0	553	0	0	0	0	
10	0	0	0	0	0	552	0	0	0	0	
11	0	0	0	0	0	552	0	0	0	0	
12	0	0	0	0	0	552	0	0	0	0	
13	0	0	0	0	0	553	0	0	0	0	
14	0	0	0	0	3	554	0	0	0	0	
15	0	0	0	0	0	555	0	0	0	0	
0	0	0	0	0	0	556	0	0	0	0	
1	0	0	0	0	0	557	0	0	0	0	
2	0	0	0	0	0	556	0	0	0	0	
3	0	0	0	0	0	554	0	0	0	0	
4	0	0	0	0	0	553	0	0	0	0	
5	0	0	0	0	0	553	0	0	0	0	
6	0	0	0	0	2	553	0	0	0	0	
7	0	0	0	0	0	553	0	0	0	0	
8	0	0	0	0	0	553	0	0	0	0	
9	0	0	0	0	0	553	0	0	0	0	
10	0	0	0	0	0	553	0	0	0	0	
11	0	0	0	0	0	553	0	0	0	0	
12	0	0	0	0	0	553	0	0	0	0	
13	0	0	0	0	0	552	0	0	0	0	
14	0	0	0	0	2	551	0	0	0	0	
15	0	0	0	0	0	550	0	0	0	0	
0	0	0	0	0	0	548	0	0	0	0	
1	0	0	0	0	0	546	0	0	0	0	
2	0	0	0	0	0	544	0	0	0	0	
3	0	0	0	0	0	544	0	0	0	0	
4	0	0	0	0	0	544	0	0	0	0	
5	0	0	0	0	0	545	0	0	0	0	
6	0	0	0	0	2	544	0	0	0	0	
7	0	0	0	0	0	542	0	0	0	0	
8	0	0	0	0	0	541	0	0	0	0	
9	0	0	0	0	0	540	0	0	0	0	
10	0	0	0	0	0	540	0	0	0	0	
11	0	0	0	0	0	540	0	0	0	0	
12	0	0	0	0	0	540	0	0	0	0	
13	0	0	0	0	0	539	0	0	0	0	
14	0	0	0	0	2	538	0	0	0	0	
15	0	0	0	0	0	536	0	0	0	0	
0	0	0	0	0	0	535	0	0	0	0	
1	0	0	0	0	0	534	0	0	0	0	
2	0	0	0	0	0	533	0	0	0	0	
3	0	0	0	0	0	532	0	0	0	0	
4	0	0	0	0	0	531	0	0	0	0	
5	0	0	0	0	0	531	0	0	0	0	
6	0	0	0	0	2	532	0	0	0	0	
7	0	0	0	0	0	534	0	0	0	0	
8	0	0	0	0	0	535	0	0	0	0	
9	0	0	0	0	0	536	0	0	0	0	
10	0	0	0	0	0	537	0	0	0	0	
11	0	0	0	0	0	537	0	0	0	0	
12	0	0	0	0	0	538	0	0	0	0	
13	0	0	0	0	0	538	0	0	0	0	
14	0	0	0	0	1	537	0	0	0	0	
15	0	0	0	0	0	536	0	0	0	0	
0	0	0	0	0	0	535	0	0	0	0	
1	0	0	0	0	0	533	0	0	0	0	
2	0	0	0	0	0	531	0	0	0	0	
3	0	0	0	0	0	530	0	0	0	0	
4	0	0	0	0	0	527	0	0	0	0	
5	0	0	0	0	0	526	0	0	0	0	
6	0	0	0	0	1	523	0	0	0	0	
7	0	0	0	0	0	521	0	0	0	0	
8	0	0	0	0	0	519	0	0	0	0	
9	0	0	0	0	0	519	0	0	0	0	
10	0	0	0	0	0	517	0	0	0	0	
11	0	0	0	0	0	515	0	0	0	0	
12	0	0	0	0	0	515	0	0	0	0	
13	0	0	0	0	0	515	0	0	0	0	
14	0	0	0	0	2	513	0	0	0	0	
15	0	0	0	0	0	512	0	0	0	0	
0	0	0	0	0	0	511	0	0	0	0	
1	0	0	0	0	0	509	0	0	0	0	
2	0	0	0	0	0	507	0	0	0	0	
3	0	0	0	0	0	507	0	0	0	0	
4	0	0	0	0	0	505	0	0	0	0	
5	0	0	0	0	0	504	0	0	0	0	
6	0	0	0	0	2	503	0	0	0	0	
7	0	0	0	0	0	501	0	0	0	0	
8	0	0	0	0	0	500	0	0	0	0	
9	0	0	0	0	0	499	0	0	0	0	
10	0	0	0	0	0	499	0	0	0	0	
11	0	0	0	0	0	497	0	0	0	0	
12	0	0	0	0	0	496	0	0	0	0	
13	0	0	0	0	0	495	0	0	0	0	
14	0	0	0	0	2	493	0	0	0	0	
15	0	0	0	0	0	490	0	0	0	0	
0	0	0	0	0	0	489	0	0	0	0	
1	0	0	0	0	0	487	0	0	0	0	
2	0	0	0	0	0	486	0	0	0	0	
3	0	0	0	0	0	485	0	0	0	0	
4	0	0	0	0	0	484	0	0	0	0	
5	0	0	0	0	0	483	0	0	0	0	
6	0	0	0	0	3	482	0	0	0	0	
7	0	0	0	0	0	482	0	0	0	0	
8	0	0	0	0	0	482	0	0	0	0	
9	0	0	0	0	0	481	0	0	0	0	
10	0	0	0	0	0	481	0	0	0	0	
11	0	0	0	0	0	481	0	0	0	0	
12	0	0	0	0	0	481	0	0	0	0	
13	0	0	0	0	0	481	0	0	0	0	
14	0	0	0	0	2	480	0	0	0	0	
15	0	0	0	0	0	481	0	0	0	0	
0	0	0	0	0	0	480	0	0	0	0	
1	0	0	0	0	0	480	0	0	0	0	
2	0	0	0	0	0	479	0	0	0	0	
3	0	0	0	0	0	478	0	0	0	0	
4	0	0	0	0	0	477	0	0	0	0	
5	0	0	0	0	0	476	0	0	0	0	
6	0	0	0	0	2	473	0	0	0	0	
7	0	0	0	0	0	472	0	0	0	0	
8	0	0	0	0	0	471	0	0	0	0	
9	0	0	0	0	0	470	0	0	0	0	
10	0	0	0	0	0	470	0	0	0	0	
11	0	0	0	0	0	470	0	0	0	0	
12	0	0	0	0	0	471	0	0	0	0	
13	0	0	0	0	0	471	0	0	0	0	
14	0	0	0	0	2	471	0	0	0	0	
15	0	0	0	0	0	472	0	0	0	0	
0	0	0	0	0	0	472	0	0	0	0	
1	0	0	0	0	0	474	0	0	0	0	
2	0	0	0	0	0	476	0	0	0	0	
3	0	0	0	0	0	478	0	0	0	0	
4	0	0	0	0	0	479	0	0	0	0	
5	0	0	0	0	0	480	0	0	0	0	
6	0	0	0	0	2	481	0	0	0	0	
7	0	0	0	0	0	482	0	0	0	0	
8	0	0	0	0	0	483	0	0	0	0	
9	0	0	0	0	0	483	0	0	0	0	
10	0	0	0	0	0	484	0	0	0	0	
11	0	0	0	0	0	484	0	0	0	0	
12	0	0	0	0	0	484	0	0	0	0	
13	0	0	0	0	0	484	0	0	0	0	
14	0	0	0	0	2	486	0	0	0	0	
15	0	0	0	0	0	486	0	0	0	0	
0	0	0	0	0	0	486	0	0	0	0	
1	0	0	0	0	0	485	0	0	0	0	
2	0	0	0	0	0	485	0	0	0	0	
3	0	0	0	0	0	486	0	0	0	0	
4	0	0	0	0	0	487	0	0	0	0	
5	0	0	0	0	0	488	0	0	0	0	
6	0	0	0	0	2	490	0	0	0	0	
7	0	0	0	0	0	492	0	0	0	0	
8	0	0	0	0	0	496	0	0	0	0	
9	0	0	0	0	0	497	0	0	0	0	
10	0	0	0	0	0	499	0	0	0	0	
11	0	0	0	0	0	502	0	0	0	0	
12	0	0	0	0	0	504	0	0	0	0	
13	0	0	0	0	0	504	0	0	0	0	
14	0	0	0	0	2	506	0	0	0	0	
15	0	0	0	0	0	507	0	0	0	0	
0	0	0	0	0	0	507	0	0	0	0	
1	0	0	0	0	0	508	0	0	0	0	
2	0	0	0	0	0	509	0	0	0	0	
3	0	0	0	0	0	510	0	0	0	0	
4	0	0	0	0	0	511	0	0	0	0	
5	0	0	0	0	0	512	0	0	0	0	
6	0	0	0	0	1	513	0	0	0	0	
7	0	0	0	0	0	514	0	0	0	0	
8	0	0	0	0	0	514	0	0	0	0	
9	0	0	0	0	0	515	0	0	0	0	
10	0	0	0	0	0	516	0	0	0	0	
11	0	0	0	0	0	518	0	0	0	0	
12	0	0	0	0	0	520	0	0	0	0	
13	0	0	0	0	0	524	0	0	0	0	
14	0	0	0	0	1	525	0	0	0	0	
15	0	0	0	0	0	527	0	0	0	0	
0	0	0	0	0	0	529	0	0	0	0	
1	0	0	0	0	0	529	0	0	0	0	
2	0	0	0	0	0	528	0	0	0	0	
3	0	0	0	0	0	527	0	0	0	0	
4	0	0	0	0	0	527	0	0	0	0	
5	0	0	0	0	0	527	0	0	0	0	
6	0	0	0	0	1	526	0	0	0	0	
7	0	0	0	0	0	526	0	0	0	0	
8	0	0	0	0	0	526	0	0	0	0	
9	0	0	0	0	0	526	0	0	0	0	
10	0	0	0	0	0	525	0	0	0	0	
11	0	0	0	0	0	525	0	0	0	0	
12	0	0	0	0	0	522	0	0	0	0	
13	0	0	0	0	0	519	0	0	0	0	
14	0	0	0	0	2	519	0	0	0	0	
15	0	0	0	0	0	518	0	0	0	0	
0	0	0	0	0	0	518	0	0	0	0	
1	0	0	0	0	0	518	0	0	0	0	
2	0	0	0	0	0	517	0	0	0	0	
3	0	0	0	0	0	515	0	0	0	0	
4	0	0	0	0	0	514	0	0	0	0	
5	0	0	0	0	0	514	0	0	0	0	
6	0	0	0	0	2	515	0	0	0	0	
7	0	0	0	0	0	517	0	0	0	0	
8	0	0	0	0	0	519	0	0	0	0	
9	0	0	0	0	0	522	0	0	0	0	
10	0	0	0	0	0	524	0	0	0	0	
11	0	0	0	0	0	526	0	0	0	0	
12	0	0	0	0	0	528	0	0	0	0	
13	0	0	0	0	0	528	0	0	0	0	
14	0	0	0	0	2	529	0	0	0	0	
15	0	0	0	0	0	529	0	0	0	0	
0	0	0	0	0	0	529	0	0	0	0	
1	0	0	0	0	0	527	0	0	0	0	
2	0	0	0	0	0	525	0	0	0	0	
3	0	0	0	0	0	524	0	0	0	0	
4	0	0	0	0	0	524	0	0	0	0	
5	0	0	0	0	0	523	0	0	0	0	
6	0	0	0	0	2	520	0	0	0	0	
7	0	0	0	0	0	516	0	0	0	0	
8	0	0	0	0	0	514	0	0	0	0	
9	0	0	0	0	0	512	0	0	0	0	
10	0	0	0	0	0	510	0	0	0	0	
11	0	0	0	0	0	511	0	0	0	0	
12	0	0	0	0	0	513	0	0	0	0	
13	0	0	0	0	0	514	0	0	0	0	
14	0	0	0	0	3	517	0	0	0	0	
15	0	0	0	0	0	519	0	0	0	0	
0	0	0	0	0	0	522	0	0	0	0	
1	0	0	0	0	0	527	0	0	0	0	
2	0	0	0	0	0	530	0	0	0	0	
3	0	0	0	0	0	532	0	0	0	0	
4	0	0	0	0	0	534	0	0	0	0	
5	0	0	0	0	0	536	0	0	0	0	
6	0	0	0	0	2	538	0	0	0	0	
7	0	0	0	0	0	539	0	0	0	0	
8	0	0	0	0	0	540	0	0	0	0	
9	0	0	0	0	0	539	0	0	0	0	
10	0	0	0	0	0	537	0	0	0	0	
11	0	0	0	0	0	536	0	0	0	0	
12	0	0	0	0	0	537	0	0	0	0	
13	0	0	0	0	0	537	0	0	0	0	
14	0	0	0	0	2	537	0	0	0	0	
15	0	0	0	0	0	537	0	0	0	0	
0	0	0	0	0	0	537	0	0	0	0	
1	0	0	0	0	0	535	0	0	0	0	
2	0	0	0	0	0	533	0	0	0	0	
3	0	0	0	0	0	531	0	0	0	0	
4	0	0	0	0	0	529	0	0	0	0	
5	0	0	0	0	0	528	0	0	0	0	
6	0	0	0	0	2	527	0	0	0	0	
7	0	0	0	0	0	526	0	0	0	0	
8	0	0	0	0	0	523	0	0	0	0	
9	0	0	0	0	0	521	0	0	0	0	
10	0	0	0	0	0	521	0	0	0	0	
11	0	0	0	0	0	520	0	0	0	0	
12	0	0	0	0	0	519	0	0	0	0	
13	0	0	0	0	0	520	0	0	0	0	
14	0	0	0	0	3	521	0	0	0	0	
15	0	0	0	0	0	521	0	0	0	0	
0	0	0	0	0	0	519	0	0	0	0	
1	0	0	0	0	0	518	0	0	0	0	
2	0	0	0	0	0	516	0	0	0	0	
3	0	0	0	0	0	514	0	0	0	0	
4	0	0	0	0	0	513	0	0	0	0	
5	0	0	0	0	0	512	0	0	0	0	
6	0	0	0	0	2	510	0	0	0	0	
7	0	0	0	0	0	507	0	0	0	0	
8	0	0	0	0	0	507	0	0	0	0	
9	0	0	0	0	0	506	0	0	0	0	
10	0	0	0	0	0	503	0	0	0	0	
11	0	0	0	0	0	501	0	0	0	0	
12	0	0	0	0	0	498	0	0	0	0	
13	0	0	0	0	0	496	0	0	0	0	
14	0	0	0	0	2	493	0	0	0	0	
15	0	0	0	0	0	490	0	0	0	0	
0	0	0	0	0	0	488	0	0	0	0	
1	0	0	0	0	0	487	0	0	0	0	
2	0	0	0	0	0	486	0	0	0	0	
3	0	0	0	0	0	484	0	0	0	0	
4	0	0	0	0	0	484	0	0	0	0	
5	0	0	0	0	0	482	0	0	0	0	
6	0	0	0	0	1	481	0	0	0	0	
7	0	0	0	0	0	480	0	0	0	0	
8	0	0	0	0	0	479	0	0	0	0	
9	0	0	0	0	0	478	0	0	0	0	
10	0	0	0	0	0	478	0	0	0	0	
11	0	0	0	0	0	475	0	0	0	0	
12	0	0	0	0	0	475	0	0	0	0	
13	0	0	0	0	0	475	0	0	0	0	
14	0	0	0	0	1	474	0	0	0	0	
15	0	0	0	0	0	473	0	0	0	0	
0	0	0	0	0	0	473	0	0	0	0	
1	0	0	0	0	0	474	0	0	0	0	
2	0	0	0	0	0	475	0	0	0	0	
3	0	0	0	0	0	475	0	0	0	0	
4	0	0	0	0	0	476	0	0	0	0	
5	0	0	0	0	0	477	0	0	0	0	
6	0	0	0	0	1	477	0	0	0	0	
7	0	0	0	0	0	480	0	0	0	0	
8	0	0	0	0	0	483	0	0	0	0	
9	0	0	0	0	0	486	0	0	0	0	
10	0	0	0	0	0	490	0	0	0	0	
11	0	0	0	0	0	494	0	0	0	0	
12	0	0	0	0	0	498	0	0	0	0	
13	0	0	0	0	0	503	0	0	0	0	
14	0	0	0	0	3	508	0	0	0	0	
15	0	0	0	0	0	511	0	0	0	0	
0	0	0	0	0	0	518	0	0	0	0	
1	0	0	0	0	0	525	0	0	0	0	
2	0	0	0	0	0	531	0	0	0	0	
3	0	0	0	0	0	537	0	0	0	0	
4	0	0	0	0	0	544	0	0	0	0	
5	0	0	0	0	0	548	0	0	0	0	
6	0	0	0	0	3	551	0	0	0	0	
7	0	0	0	0	0	552	0	0	0	0	
8	0	0	0	0	0	555	0	0	0	0	
9	0	0	0	0	0	555	0	0	0	0	
10	0	0	0	0	0	555	0	0	0	0	
11	0	0	0	0	0	555	0	0	0	0	
12	0	0	0	0	0	556	0	0	0	0	
13	0	0	0	0	0	557	0	0	0	0	
14	0	0	0	0	3	560	0	0	0	0	
15	0	0	0	0	0	566	0	0	0	0	
0	0	0	0	0	0	574	0	0	0	0	
1	0	0	0	0	0	583	0	0	0	0	
2	0	0	0	0	0	592	0	0	0	0	
3	0	0	0	0	0	605	0	0	0	0	
4	0	0	0	0	0	619	1	0	0	0	
5	0	0	0	0	0	635	1	0	0	0	
6	0	0	0	0	2	650	1	0	0	0	
7	0	0	0	0	0	664	1	0	0	0	
8	0	0	0	0	0	679	1	0	0	0	
9	0	0	0	0	0	692	1	0	0	0	
10	0	0	0	0	0	706	1	0	0	0	
11	0	0	0	0	0	719	1	0	0	0	
12	0	0	0	0	0	734	1	0	0	0	
13	0	0	0	0	0	750	1	0	0	0	
14	0	0	0	0	3	766	1	0	0	0	
15	0	0	0	0	0	782	1	0	0	0	
0	0	0	0	0	0	799	1	0	0	0	
1	0	0	0	0	0	820	1	0	0	0	
2	0	0	0	0	0	844	2	0	0	0	
3	0	0	0	0	0	867	2	0	0	0	
4	0	0	0	0	0	891	2	0	0	0	
5	0	0	0	0	0	916	2	0	0	0	
6	0	0	0	0	2	944	2	0	0	0	
7	0	0	0	0	0	969	3	0	0	0	
8	0	0	0	0	0	992	3	0	0	0	
9	0	0	0	0	0	1010	3	0	0	0	
10	0	0	0	0	0	1021	3	0	0	0	
11	0	0	0	0	0	1022	3	0	0	0	
12	0	0	0	0	0	1022	3	0	0	0	
13	0	0	0	0	0	1022	3	0	0	0	
14	0	0	0	0	2	1022	3	0	0	0	
15	0	0	0	0	0	1022	3	0	0	0	
0	0	0	0	0	0	1022	3	0	0	0	
1	0	0	0	0	0	1018	3	0	0	0	
2	0	0	0	0	0	981	3	0	0	0	
3	0	0	0	0	0	941	2	0	0	0	
4	0	0	0	0	0	896	2	0	0	0	
5	0	0	0	0	0	847	2	0	0	0	
6	0	0	0	0	2	793	1	0	0	0	
7	0	0	0	0	0	745	1	0	0	0	
8	0	0	0	0	0	702	1	0	0	0	
9	0	0	0	0	0	665	0	0	0	0	
10	0	0	0	0	0	631	1	0	0	0	
11	0	0	0	0	0	599	0	0	0	0	
12	0	0	0	0	0	570	0	0	0	0	
13	0	0	0	0	0	547	0	0	0	0	
14	0	0	0	0	2	526	0	0	0	0	
15	0	0	0	0	0	505	0	0	0	0	
0	0	0	0	0	0	487	0	0	0	0	
1	0	0	0	0	0	469	0	0	0	0	
2	0	0	0	0	0	450	0	0	0	0	
3	0	0	0	0	0	430	0	0	0	0	
4	0	0	0	0	0	411	0	0	0	0	
5	0	0	0	0	0	391	0	0	0	0	
6	0	0	0	0	2	375	0	0	0	0	
7	0	0	0	0	0	360	0	0	0	0	
8	0	0	0	0	0	347	0	0	0	0	
9	0	0	0	0	0	335	0	0	0	0	
10	0	0	0	0	0	323	0	0	0	0	
11	0	0	0	0	0	313	0	0	0	0	
12	0	0	0	0	0	303	0	0	0	0	
13	0	0	0	0	0	295	0	0	0	0	
14	0	0	0	0	3	289	0	0	0	0	
15	0	0	0	0	0	284	0	0	0	0	
0	0	0	0	0	0	283	0	0	0	0	
1	0	0	0	0	0	286	0	0	0	0	
2	0	0	0	0	0	290	0	0	0	0	
3	0	0	0	0	0	295	0	0	0	0	
4	0	0	0	0	0	305	0	0	0	0	
5	0	0	0	0	0	313	0	0	0	0	
6	0	0	0	0	1	322	0	0	0	0	
7	0	0	0	0	0	330	0	0	0	0	
8	0	0	0	0	0	338	0	0	0	0	
9	0	0	0	0	0	345	0	0	0	0	
10	0	0	0	0	0	352	0	0	0	0	
11	0	0	0	0	0	358	0	0	0	0	
12	0	0	0	0	0	365	0	0	0	0	
13	0	0	0	0	0	372	0	0	0	0	
14	0	0	0	0	0	377	0	0	0	0	
15	0	0	0	0	0	383	0	0	0	0	
0	0	0	0	0	0	388	0	0	0	0	
1	0	0	0	0	0	393	0	0	0	0	
2	0	0	0	0	0	397	0	0	0	0	
3	0	0	0	0	0	400	0	0	0	0	
4	0	0	0	0	0	403	0	0	0	0	
5	0	0	0	0	0	406	0	0	0	0	
6	0	0	0	0	2	409	0	0	0	0	
7	0	0	0	0	0	412	0	0	0	0	
8	0	0	0	0	0	415	0	0	0	0	
9	0	0	0	0	0	419	0	0	0	0	
10	0	0	0	0	0	422	0	0	0	0	
11	0	0	0	0	0	424	0	0	0	0	
12	0	0	0	0	0	426	0	0	0	0	
13	0	0	0	0	0	427	0	0	0	0	
14	0	0	0	0	3	427	0	0	0	0	
15	0	0	0	0	0	429	0	0	0	0	
0	0	0	0	0	0	428	0	0	0	0	
1	0	0	0	0	0	427	0	0	0	0	
2	0	0	0	0	0	425	0	0	0	0	
3	0	0	0	0	0	424	0	0	0	0	
4	0	0	0	0	0	423	0	0	0	0	
5	0	0	0	0	0	422	0	0	0	0	
6	0	0	0	0	2	421	0	0	0	0	
7	0	0	0	0	0	421	0	0	0	0	
8	0	0	0	0	0	422	0	0	0	0	
9	0	0	0	0	0	422	0	0	0	0	
10	0	0	0	0	0	423	0	0	0	0	
11	0	0	0	0	0	424	0	0	0	0	
12	0	0	0	0	0	425	0	0	0	0	
13	0	0	0	0	0	427	0	0	0	0	
14	0	0	0	0	2	429	0	0	0	0	
15	0	0	0	0	0	430	0	0	0	0	
0	0	0	0	0	0	430	0	0	0	0	
1	0	0	0	0	0	431	0	0	0	0	
2	0	0	0	0	0	432	0	0	0	0	
3	0	0	0	0	0	435	0	0	0	0	
4	0	0	0	0	0	438	0	0	0	0	
5	0	0	0	0	0	440	0	0	0	0	
6	0	0	0	0	2	441	0	0	0	0	
7	0	0	0	0	0	444	0	0	0	0	
8	0	0	0	0	0	448	0	0	0	0	
9	0	0	0	0	0	451	0	0	0	0	
10	0	0	0	0	0	453	0	0	0	0	
11	0	0	0	0	0	455	0	0	0	0	
12	0	0	0	0	0	457	0	0	0	0	
13	0	0	0	0	0	460	0	0	0	0	
14	0	0	0	0	2	463	0	0	0	0	
15	0	0	0	0	0	466	0	0	0	0	
0	0	0	0	0	0	468	0	0	0	0	
1	0	0	0	0	0	471	0	0	0	0	
2	0	0	0	0	0	473	0	0	0	0	
3	0	0	0	0	0	476	0	0	0	0	
4	0	0	0	0	0	478	0	0	0	0	
5	0	0	0	0	0	481	0	0	0	0	
6	0	0	0	0	3	483	0	0	0	0	
7	0	0	0	0	0	486	0	0	0	0	
8	0	0	0	0	0	489	0	0	0	0	
9	0	0	0	0	0	493	0	0	0	0	
10	0	0	0	0	0	496	0	0	0	0	
11	0	0	0	0	0	501	0	0	0	0	
12	0	0	0	0	0	504	0	0	0	0	
13	0	0	0	0	0	507	0	0	0	0	
14	0	0	0	0	3	509	0	0	0	0	
15	0	0	0	0	0	513	0	0	0	0	
0	0	0	0	0	0	513	0	0	0	0	
1	0	0	0	0	0	514	0	0	0	0	
2	0	0	0	0	0	515	0	0	0	0	
3	0	0	0	0	0	515	0	0	0	0	
4	0	0	0	0	0	515	0	0	0	0	
5	0	0	0	0	0	514	0	0	0	0	
6	0	0	0	0	2	514	0	0	0	0	
7	0	0	0	0	0	514	0	0	0	0	
8	0	0	0	0	0	515	0	0	0	0	
9	0	0	0	0	0	515	0	0	0	0	
10	0	0	0	0	0	515	0	0	0	0	
11	0	0	0	0	0	516	0	0	0	0	
12	0	0	0	0	0	516	0	0	0	0	
13	0	0	0	0	0	515	0	0	0	0	
14	0	0	0	0	2	515	0	0	0	0	
15	0	0	0	0	0	515	0	0	0	0	
0	0	0	0	0	0	515	0	0	0	0	
1	0	0	0	0	0	515	0	0	0	0	
2	0	0	0	0	0	516	0	0	0	0	
3	0	0	0	0	0	516	0	0	0	0	
4	0	0	0	0	0	518	0	0	0	0	
5	0	0	0	0	0	520	0	0	0	0	
6	0	0	0	0	2	524	0	0	0	0	
7	0	0	0	0	0	527	0	0	0	0	
8	0	0	0	0	0	530	0	0	0	0	
9	0	0	0	0	0	532	0	0	0	0	
10	0	0	0	0	0	535	0	0	0	0	
11	0	0	0	0	0	537	0	0	0	0	
12	0	0	0	0	0	540	0	0	0	0	
13	0	0	0	0	0	543	0	0	0	0	
14	0	0	0	0	1	544	0	0	0	0	
15	0	0	0	0	0	545	0	0	0	0	
0	0	0	0	0	0	547	0	0	0	0	
1	0	0	0	0	0	548	0	0	0	0	
2	0	0	0	0	0	551	0	0	0	0	
3	0	0	0	0	0	552	0	0	0	0	
4	0	0	0	0	0	555	0	0	0	0	
5	0	0	0	0	0	557	0	0	0	0	
6	0	0	0	0	1	558	0	0	0	0	
7	0	0	0	0	0	558	0	0	0	0	
8	0	0	0	0	0	556	0	0	0	0	
9	0	0	0	0	0	556	0	0	0	0	
10	0	0	0	0	0	554	0	0	0	0	
11	0	0	0	0	0	554	0	0	0	0	
12	0	0	0	0	0	555	0	0	0	0	
13	0	0	0	0	0	555	0	0	0	0	
14	0	0	0	0	1	557	0	0	0	0	
15	0	0	0	0	0	558	0	0	0	0	
0	0	0	0	0	0	560	0	0	0	0	
1	0	0	0	0	0	563	0	0	0	0	
2	0	0	0	0	0	564	0	0	0	0	
3	0	0	0	0	0	566	0	0	0	0	
4	0	0	0	0	0	568	0	0	0	0	
5	0	0	0	0	0	568	0	0	0	0	
6	0	0	0	0	3	567	0	0	0	0	
7	0	0	0	0	0	564	0	0	0	0	
8	0	0	0	0	0	563	0	0	0	0	
9	0	0	0	0	0	562	0	0	0	0	
10	0	0	0	0	0	561	0	0	0	0	
11	0	0	0	0	0	560	0	0	0	0	
12	0	0	0	0	0	558	0	0	0	0	
13	0	0	0	0	0	556	0	0	0	0	
14	0	0	0	0	2	556	0	0	0	0	
15	0	0	0	0	0	557	0	0	0	0	
0	0	0	0	0	0	557	0	0	0	0	
1	0	0	0	0	0	556	0	0	0	0	
2	0	0	0	0	0	555	0	0	0	0	
3	0	0	0	0	0	554	0	0	0	0	
4	0	0	0	0	0	555	0	0	0	0	
5	0	0	0	0	0	556	0	0	0	0	
6	0	0	0	0	2	556	0	0	0	0	
7	0	0	0	0	0	554	0	0	0	0	
8	0	0	0	0	0	554	0	0	0	0	
9	0	0	0	0	0	555	0	0	0	0	
10	0	0	0	0	0	554	0	0	0	0	
11	0	0	0	0	0	554	0	0	0	0	
12	0	0	0	0	0	553	0	0	0	0	
13	0	0	0	0	0	551	0	0	0	0	
14	0	0	0	0	3	548	0	0	0	0	
15	0	0	0	0	0	547	0	0	0	0	
0	0	0	0	0	0	545	0	0	0	0	
1	0	0	0	0	0	545	0	0	0	0	
2	0	0	0	0	0	544	0	0	0	0	
3	0	0	0	0	0	544	0	0	0	0	
4	0	0	0	0	0	543	0	0	0	0	
5	0	0	0	0	0	540	0	0	0	0	
6	0	0	0	0	2	538	0	0	0	0	
7	0	0	0	0	0	537	0	0	0	0	
8	0	0	0	0	0	536	0	0	0	0	
9	0	0	0	0	0	535	0	0	0	0	
10	0	0	0	0	0	533	0	0	0	0	
11	0	0	0	0	0	532	0	0	0	0	
12	0	0	0	0	0	532	0	0	0	0	
13	0	0	0	0	0	530	0	0	0	0	
14	0	0	0	0	2	529	0	0	0	0	
15	0	0	0	0	0	528	0	0	0	0	
0	0	0	0	0	0	527	0	0	0	0	
1	0	0	0	0	0	526	0	0	0	0	
2	0	0	0	0	0	524	0	0	0	0	
3	0	0	0	0	0	523	0	0	0	0	
4	0	0	0	0	0	523	0	0	0	0	
5	0	0	0	0	0	523	0	0	0	0	
6	0	0	0	0	2	522	0	0	0	0	
7	0	0	0	0	0	521	0	0	0	0	
8	0	0	0	0	0	522	0	0	0	0	
9	0	0	0	0	0	522	0	0	0	0	
10	0	0	0	0	0	521	0	0	0	0	
11	0	0	0	0	0	522	0	0	0	0	
12	0	0	0	0	0	522	0	0	0	0	
13	0	0	0	0	0	523	0	0	0	0	
14	0	0	0	0	2	523	0	0	0	0	
15	0	0	0	0	0	522	0	0	0	0	
0	0	0	0	0	0	521	0	0	0	0	
1	0	0	0	0	0	521	0	0	0	0	
2	0	0	0	0	0	519	0	0	0	0	
3	0	0	0	0	0	519	0	0	0	0	
4	0	0	0	0	0	519	0	0	0	0	
5	0	0	0	0	0	518	0	0	0	0	
6	0	0	0	0	3	518	0	0	0	0	
7	0	0	0	0	0	516	0	0	0	0	
8	0	0	0	0	0	513	0	0	0	0	
9	0	0	0	0	0	512	0	0	0	0	
10	0	0	0	0	0	512	0	0	0	0	
11	0	0	0	0	0	510	0	0	0	0	
12	0	0	0	0	0	508	0	0	0	0	
13	0	0	0	0	0	507	0	0	0	0	
14	0	0	0	0	2	506	0	0	0	0	
15	0	0	0	0	0	506	0	0	0	0	
0	0	0	0	0	0	506	0	0	0	0	
1	0	0	0	0	0	505	0	0	0	0	
2	0	0	0	0	0	504	0	0	0	0	
3	0	0	0	0	0	504	0	0	0	0	
4	0	0	0	0	0	504	0	0	0	0	
5	0	0	0	0	0	504	0	0	0	0	
6	0	0	0	0	2	504	0	0	0	0	
7	0	0	0	0	0	504	0	0	0	0	
8	0	0	0	0	0	504	0	0	0	0	
9	0	0	0	0	0	502	0	0	0	0	
10	0	0	0	0	0	501	0	0	0	0	
11	0	0	0	0	0	500	0	0	0	0	
12	0	0	0	0	0	498	0	0	0	0	
13	0	0	0	0	0	495	0	0	0	0	
14	0	0	0	0	1	492	0	0	0	0	
15	0	0	0	0	0	488	0	0	0	0	
0	0	0	0	0	0	487	0	0	0	0	
1	0	0	0	0	0	487	0	0	0	0	
2	0	0	0	0	0	486	0	0	0	0	
3	0	0	0	0	0	484	0	0	0	0	
4	0	0	0	0	0	481	0	0	0	0	
5	0	0	0	0	0	476	0	0	0	0	
6	0	0	0	0	1	473	0	0	0	0	
7	0	0	0	0	0	472	0	0	0	0	
8	0	0	0	0	0	470	0	0	0	0	
9	0	0	0	0	0	468	0	0	0	0	
10	0	0	0	0	0	467	0	0	0	0	
11	0	0	0	0	0	466	0	0	0	0	
12	0	0	0	0	0	466	0	0	0	0	
13	0	0	0	0	0	465	0	0	0	0	
14	0	0	0	0	1	464	0	0	0	0	
15	0	0	0	0	0	464	0	0	0	0	
0	0	0	0	0	0	462	0	0	0	0	
1	0	0	0	0	0	459	0	0	0	0	
2	0	0	0	0	0	456	0	0	0	0	
3	0	0	0	0	0	454	0	0	0	0	
4	0	0	0	0	0	451	0	0	0	0	
5	0	0	0	0	0	448	0	0	0	0	
6	0	0	0	0	2	445	0	0	0	0	
7	0	0	0	0	0	445	0	0	0	0	
8	0	0	0	0	0	444	0	0	0	0	
9	0	0	0	0	0	443	0	0	0	0	
10	0	0	0	0	0	442	0	0	0	0	
11	0	0	0	0	0	440	0	0	0	0	
12	0	0	0	0	0	440	0	0	0	0	
13	0	0	0	0	0	439	0	0	0	0	
14	0	0	0	0	2	436	0	0	0	0	
15	0	0	0	0	0	434	0	0	0	0	
0	0	0	0	0	0	431	0	0	0	0	
1	0	0	0	0	0	430	0	0	0	0	
2	0	0	0	0	0	428	0	0	0	0	
3	0	0	0	0	0	426	0	0	0	0	
4	0	0	0	0	0	425	0	0	0	0	
5	0	0	0	0	0	425	0	0	0	0	
6	0	0	0	0	2	425	0	0	0	0	
7	0	0	0	0	0	425	0	0	0	0	
8	0	0	0	0	0	425	0	0	0	0	
9	0	0	0	0	0	425	0	0	0	0	
10	0	0	0	0	0	425	0	0	0	0	
11	0	0	0	0	0	426	0	0	0	0	
12	0	0	0	0	0	426	0	0	0	0	
13	0	0	0	0	0	425	0	0	0	0	
14	0	0	0	0	2	427	0	0	0	0	
15	0	0	0	0	0	427	0	0	0	0	
0	0	0	0	0	0	428	0	0	0	0	
1	0	0	0	0	0	430	0	0	0	0	
2	0	0	0	0	0	430	0	0	0	0	
3	0	0	0	0	0	431	0	0	0	0	
4	0	0	0	0	0	432	0	0	0	0	
5	0	0	0	0	0	432	0	0	0	0	
6	0	0	0	0	3	432	0	0	0	0	
7	0	0	0	0	0	433	0	0	0	0	
8	0	0	0	0	0	435	0	0	0	0	
9	0	0	0	0	0	436	0	0	0	0	
10	0	0	0	0	0	438	0	0	0	0	
11	0	0	0	0	0	438	0	0	0	0	
12	0	0	0	0	0	438	0	0	0	0	
13	0	0	0	0	0	440	0	0	0	0	
14	0	0	0	0	2	441	0	0	0	0	
15	0	0	0	0	0	443	0	0	0	0	
0	0	0	0	0	0	444	0	0	0	0	
1	0	0	0	0	0	446	0	0	0	0	
2	0	0	0	0	0	448	0	0	0	0	
3	0	0	0	0	0	450	0	0	0	0	
4	0	0	0	0	0	452	0	0	0	0	
5	0	0	0	0	0	453	0	0	0	0	
6	0	0	0	0	3	453	0	0	0	0	
7	0	0	0	0	0	453	0	0	0	0	
8	0	0	0	0	0	455	0	0	0	0	
9	0	0	0	0	0	456	0	0	0	0	
10	0	0	0	0	0	457	0	0	0	0	
11	0	0	0	0	0	459	0	0	0	0	
12	0	0	0	0	0	460	0	0	0	0	
13	0	0	0	0	0	461	0	0	0	0	
14	0	0	0	0	2	462	0	0	0	0	
15	0	0	0	0	0	462	0	0	0	0	
0	0	0	0	0	0	463	0	0	0	0	
1	0	0	0	0	0	463	0	0	0	0	
2	0	0	0	0	0	465	0	0	0	0	
3	0	0	0	0	0	467	0	0	0	0	
4	0	0	0	0	0	467	0	0	0	0	
5	0	0	0	0	0	468	0	0	0	0	
6	0	0	0	0	2	468	0	0	0	0	
7	0	0	0	0	0	468	0	0	0	0	
8	0	0	0	0	0	468	0	0	0	0	
9	0	0	0	0	0	469	0	0	0	0	
10	0	0	0	0	0	470	0	0	0	0	
11	0	0	0	0	0	470	0	0	0	0	
12	0	0	0	0	0	471	0	0	0	0	
13	0	0	0	0	0	471	0	0	0	0	
14	0	0	0	0	3	471	0	0	0	0	
15	0	0	0	0	0	472	0	0	0	0	
0	0	0	0	0	0	472	0	0	0	0	
1	0	0	0	0	0	472	0	0	0	0	
2	0	0	0	0	0	472	0	0	0	0	
3	0	0	0	0	0	472	0	0	0	0	
4	0	0	0	0	0	471	0	0	0	0	
5	0	0	0	0	0	470	0	0	0	0	
6	0	0	0	0	2	471	0	0	0	0	
7	0	0	0	0	0	471	0	0	0	0	
8	0	0	0	0	0	472	0	0	0	0	
9	0	0	0	0	0	472	0	0	0	0	
10	0	0	0	0	0	472	0	0	0	0	
11	0	0	0	0	0	473	0	0	0	0	
12	0	0	0	0	0	473	0	0	0	0	
13	0	0	0	0	0	473	0	0	0	0	
14	0	0	0	0	1	473	0	0	0	0	
15	0	0	0	0	0	473	0	0	0	0	
0	0	0	0	0	0	472	0	0	0	0	
1	0	0	0	0	0	470	0	0	0	0	
2	0	0	0	0	0	468	0	0	0	0	
3	0	0	0	0	0	467	0	0	0	0	
4	0	0	0	0	0	466	0	0	0	0	
5	0	0	0	0	0	467	0	0	0	0	
6	0	0	0	0	1	469	0	0	0	0	
7	0	0	0	0	0	471	0	0	0	0	
8	0	0	0	0	0	472	0	0	0	0	
9	0	0	0	0	0	472	0	0	0	0	
10	0	0	0	0	0	473	0	0	0	0	
11	0	0	0	0	0	472	0	0	0	0	
12	0	0	0	0	0	472	0	0	0	0	
13	0	0	0	0	0	473	0	0	0	0	
14	0	0	0	0	2	474	0	0	0	0	
15	0	0	0	0	0	473	0	0	0	0	
0	0	0	0	0	0	473	0	0	0	0	
1	0	0	0	0	0	472	0	0	0	0	
2	0	0	0	0	0	473	0	0	0	0	
3	0	0	0	0	0	473	0	0	0	0	
4	0	0	0	0	0	475	0	0	0	0	
5	0	0	0	0	0	478	0	0	0	0	
6	0	0	0	0	2	481	0	0	0	0	
7	0	0	0	0	0	484	0	0	0	0	
8	0	0	0	0	0	486	0	0	0	0	
9	0	0	0	0	0	487	0	0	0	0	
10	0	0	0	0	0	487	0	0	0	0	
11	0	0	0	0	0	487	0	0	0	0	
12	0	0	0	0	0	487	0	0	0	0	
13	0	0	0	0	0	486	0	0	0	0	
14	0	0	0	0	3	486	0	0	0	0	
15	0	0	0	0	0	485	0	0	0	0	
0	0	0	0	0	0	485	0	0	0	0	
1	0	0	0	0	0	486	0	0	0	0	
2	0	0	0	0	0	486	0	0	0	0	
3	0	0	0	0	0	484	0	0	0	0	
4	0	0	0	0	0	484	0	0	0	0	
5	0	0	0	0	0	483	0	0	0	0	
6	0	0	0	0	3	481	0	0	0	0	
7	0	0	0	0	0	479	0	0	0	0	
8	0	0	0	0	0	478	0	0	0	0	
9	0	0	0	0	0	476	0	0	0	0	
10	0	0	0	0	0	476	0	0	0	0	
11	0	0	0	0	0	477	0	0	0	0	
12	0	0	0	0	0	478	0	0	0	0	
13	0	0	0	0	0	480	0	0	0	0	
14	0	0	0	0	2	481	0	0	0	0	
15	0	0	0	0	0	483	0	0	0	0	
0	0	0	0	0	0	483	0	0	0	0	
1	0	0	0	0	0	482	0	0	0	0	
2	0	0	0	0	0	483	0	0	0	0	
3	0	0	0	0	0	483	0	0	0	0	
4	0	0	0	0	0	483	0	0	0	0	
5	0	0	0	0	0	481	0	0	0	0	
6	0	0	0	0	2	480	0	0	0	0	
7	0	0	0	0	0	478	0	0	0	0	
8	0	0	0	0	0	477	0	0	0	0	
9	0	0	0	0	0	476	0	0	0	0	
10	0	0	0	0	0	477	0	0	0	0	
11	0	0	0	0	0	477	0	0	0	0	
12	0	0	0	0	0	476	0	0	0	0	
13	0	0	0	0	0	475	0	0	0	0	
14	0	0	0	0	3	472	0	0	0	0	
15	0	0	0	0	0	471	0	0	0	0	
0	0	0	0	0	0	469	0	0	0	0	
1	0	0	0	0	0	467	0	0	0	0	
2	0	0	0	0	0	465	0	0	0	0	
3	0	0	0	0	0	464	0	0	0	0	
4	0	0	0	0	0	464	0	0	0	0	
5	0	0	0	0	0	464	0	0	0	0	
6	0	0	0	0	2	465	0	0	0	0	
7	0	0	0	0	0	464	0	0	0	0	
8	0	0	0	0	0	463	0	0	0	0	
9	0	0	0	0	0	463	0	0	0	0	
10	0	0	0	0	0	461	0	0	0	0	
11	0	0	0	0	0	462	0	0	0	0	
12	0	0	0	0	0	461	0	0	0	0	
13	0	0	0	0	0	461	0	0	0	0	
14	0	0	0	0	3	461	0	0	0	0	
15	0	0	0	0	0	461	0	0	0	0	
0	0	0	0	0	0	461	0	0	0	0	
1	0	0	0	0	0	463	0	0	0	0	
2	0	0	0	0	0	462	0	0	0	0	
3	0	0	0	0	0	462	0	0	0	0	
4	0	0	0	0	0	461	0	0	0	0	
5	0	0	0	0	0	461	0	0	0	0	
6	0	0	0	0	2	460	0	0	0	0	
7	0	0	0	0	0	460	0	0	0	0	
8	0	0	0	0	0	459	0	0	0	0	
9	0	0	0	0	0	458	0	0	0	0	
10	0	0	0	0	0	459	0	0	0	0	
11	0	0	0	0	0	460	0	0	0	0	
12	0	0	0	0	0	459	0	0	0	0	
13	0	0	0	0	0	459	0	0	0	0	
14	0	0	0	0	2	459	0	0	0	0	
15	0	0	0	0	0	458	0	0	0	0	
0	0	0	0	0	0	459	0	0	0	0	
1	0	0	0	0	0	460	0	0	0	0	
2	0	0	0	0	0	463	0	0	0	0	
3	0	0	0	0	0	465	0	0	0	0	
4	0	0	0	0	0	466	0	0	0	0	
5	0	0	0	0	0	468	0	0	0	0	
6	0	0	0	0	1	471	0	0	0	0	
7	0	0	0	0	0	472	0	0	0	0	
8	0	0	0	0	0	475	0	0	0	0	
9	0	0	0	0	0	476	0	0	0	0	
10	0	0	0	0	0	478	0	0	0	0	
11	0	0	0	0	0	479	0	0	0	0	
12	0	0	0	0	0	480	0	0	0	0	
13	0	0	0	0	0	480	0	0	0	0	
14	0	0	0	0	1	480	0	0	0	0	
15	0	0	0	0	0	481	0	0	0	0	
0	0	0	0	0	0	482	0	0	0	0	
1	0	0	0	0	0	481	0	0	0	0	
2	0	0	0	0	0	480	0	0	0	0	
3	0	0	0	0	0	478	0	0	0	0	
4	0	0	0	0	0	476	0	0	0	0	
5	0	0	0	0	0	473	0	0	0	0	
6	0	0	0	0	1	471	0	0	0	0	
7	0	0	0	0	0	471	0	0	0	0	
8	0	0	0	0	0	471	0	0	0	0	
9	0	0	0	0	0	472	0	0	0	0	
10	0	0	0	0	0	474	0	0	0	0	
11	0	0	0	0	0	475	0	0	0	0	
12	0	0	0	0	0	478	0	0	0	0	
13	0	0	0	0	0	483	0	0	0	0	
14	0	0	0	0	2	487	0	0	0	0	
15	0	0	0	0	0	491	0	0	0	0	
0	0	0	0	0	0	493	0	0	0	0	
1	0	0	0	0	0	495	0	0	0	0	
2	0	0	0	0	0	497	0	0	0	0	
3	0	0	0	0	0	498	0	0	0	0	
4	0	0	0	0	0	499	0	0	0	0	
5	0	0	0	0	0	500	0	0	0	0	
6	0	0	0	0	3	502	0	0	0	0	
7	0	0	0	0	0	501	0	0	0	0	
8	0	0	0	0	0	499	0	0	0	0	
9	0	0	0	0	0	498	0	0	0	0	
10	0	0	0	0	0	498	0	0	0	0	
11	0	0	0	0	0	498	0	0	0	0	
12	0	0	0	0	0	497	0	0	0	0	
13	0	0	0	0	0	496	0	0	0	0	
14	0	0	0	0	2	497	0	0	0	0	
15	0	0	0	0	0	496	0	0	0	0	
0	0	0	0	0	0	494	0	0	0	0	
1	0	0	0	0	0	493	0	0	0	0	
2	0	0	0	0	0	494	0	0	0	0	
3	0	0	0	0	0	496	0	0	0	0	
4	0	0	0	0	0	497	0	0	0	0	
5	0	0	0	0	0	499	0	0	0	0	
6	0	0	0	0	2	500	0	0	0	0	
7	0	0	0	0	0	501	0	0	0	0	
8	0	0	0	0	0	500	0	0	0	0	
9	0	0	0	0	0	500	0	0	0	0	
10	0	0	0	0	0	500	0	0	0	0	
11	0	0	0	0	0	500	0	0	0	0	
12	0	0	0	0	0	502	0	0	0	0	
13	0	0	0	0	0	503	0	0	0	0	
14	0	0	0	0	2	503	0	0	0	0	
15	0	0	0	0	0	503	0	0	0	0	
0	0	0	0	0	0	504	0	0	0	0	
1	0	0	0	0	0	505	0	0	0	0	
2	0	0	0	0	0	507	0	0	0	0	
3	0	0	0	0	0	509	0	0	0	0	
4	0	0	0	0	0	510	0	0	0	0	
5	0	0	0	0	0	508	0	0	0	0	
6	0	0	0	0	3	506	0	0	0	0	
7	0	0	0	0	0	504	0	0	0	0	
8	0	0	0	0	0	500	0	0	0	0	
9	0	0	0	0	0	496	0	0	0	0	
10	0	0	0	0	0	492	0	0	0	0	
11	0	0	0	0	0	488	0	0	0	0	
12	0	0	0	0	0	486	0	0	0	0	
13	0	0	0	0	0	486	0	0	0	0	
14	0	0	0	0	2	486	0	0	0	0	
15	0	0	0	0	0	488	0	0	0	0	
0	0	0	0	0	0	489	0	0	0	0	
1	0	0	0	0	0	489	0	0	0	0	
2	0	0	0	0	0	490	0	0	0	0	
3	0	0	0	0	0	489	0	0	0	0	
4	0	0	0	0	0	490	0	0	0	0	
5	0	0	0	0	0	491	0	0	0	0	
6	0	0	0	0	3	492	0	0	0	0	
7	0	0	0	0	0	491	0	0	0	0	
8	0	0	0	0	0	492	0	0	0	0	
9	0	0	0	0	0	492	0	0	0	0	
10	0	0	0	0	0	492	0	0	0	0	
11	0	0	0	0	0	493	0	0	0	0	
12	0	0	0	0	0	493	0	0	0	0	
13	0	0	0	0	0	492	0	0	0	0	
14	0	0	0	0	2	491	0	0	0	0	
15	0	0	0	0	0	490	0	0	0	0	
0	0	0	0	0	0	490	0	0	0	0	
1	0	0	0	0	0	490	0	0	0	0	
2	0	0	0	0	0	489	0	0	0	0	
3	0	0	0	0	0	490	0	0	0	0	
4	0	0	0	0	0	489	0	0	0	0	
5	0	0	0	0	0	489	0	0	0	0	
6	0	0	0	0	2	489	0	0	0	0	
7	0	0	0	0	0	489	0	0	0	0	
8	0	0	0	0	0	491	0	0	0	0	
9	0	0	0	0	0	491	0	0	0	0	
10	0	0	0	0	0	491	0	0	0	0	
11	0	0	0	0	0	492	0	0	0	0	
12	0	0	0	0	0	492	0	0	0	0	
13	0	0	0	0	0	492	0	0	0	0	
14	0	0	0	0	2	492	0	0	0	0	
15	0	0	0	0	0	490	0	0	0	0	
0	0	0	0	0	0	487	0	0	0	0	
1	0	0	0	0	0	486	0	0	0	0	
2	0	0	0	0	0	485	0	0	0	0	
3	0	0	0	0	0	482	0	0	0	0	
4	0	0	0	0	0	481	0	0	0	0	
5	0	0	0	0	0	481	0	0	0	0	
6	0	0	0	0	1	480	0	0	0	0	
7	0	0	0	0	0	479	0	0	0	0	
8	0	0	0	0	0	480	0	0	0	0	
9	0	0	0	0	0	481	0	0	0	0	
10	0	0	0	0	0	481	0	0	0	0	
11	0	0	0	0	0	480	0	0	0	0	
12	0	0	0	0	0	478	0	0	0	0	
13	0	0	0	0	0	476	0	0	0	0	
14	0	0	0	0	1	475	0	0	0	0	
15	0	0	0	0	0	473	0	0	0	0	
0	0	0	0	0	0	473	0	0	0	0	
1	0	0	0	0	0	474	0	0	0	0	
2	0	0	0	0	0	477	0	0	0	0	
3	0	0	0	0	0	479	0	0	0	0	
4	0	0	0	0	0	481	0	0	0	0	
5	0	0	0	0	0	486	0	0	0	0	
6	0	0	0	0	1	489	0	0	0	0	
7	0	0	0	0	0	492	0	0	0	0	
8	0	0	0	0	0	493	0	0	0	0	
9	0	0	0	0	0	495	0	0	0	0	
10	0	0	0	0	0	497	0	0	0	0	
11	0	0	0	0	0	501	0	0	0	0	
12	0	0	0	0	0	504	0	0	0	0	
13	0	0	0	0	0	507	0	0	0	0	
14	0	0	0	0	2	507	0	0	0	0	
15	0	0	0	0	0	505	0	0	0	0	
0	0	0	0	0	0	507	0	0	0	0	
1	0	0	0	0	0	507	0	0	0	0	
2	0	0	0	0	0	504	0	0	0	0	
3	0	0	0	0	0	501	0	0	0	0	
4	0	0	0	0	0	497	0	0	0	0	
5	0	0	0	0	0	493	0	0	0	0	
6	0	0	0	0	2	488	0	0	0	0	
7	0	0	0	0	0	483	0	0	0	0	
8	0	0	0	0	0	481	0	0	0	0	
9	0	0	0	0	0	481	0	0	0	0	
10	0	0	0	0	0	482	0	0	0	0	
11	0	0	0	0	0	486	0	0	0	0	
12	0	0	0	0	0	495	0	0	0	0	
13	0	0	0	0	0	504	0	0	0	0	
14	0	0	0	0	2	514	0	0	0	0	
15	0	0	0	0	0	527	0	0	0	0	
0	0	0	0	0	0	541	0	0	0	0	
1	0	0	0	0	0	556	0	0	0	0	
2	0	0	0	0	0	573	0	0	0	0	
3	0	0	0	0	0	591	0	0	0	0	
4	0	0	0	0	0	605	1	0	0	0	
5	0	0	0	0	0	619	0	0	0	0	
6	0	0	0	0	3	635	1	0	0	0	
7	0	0	0	0	0	650	1	0	0	0	
8	0	0	0	0	0	668	1	0	0	0	
9	0	0	0	0	0	684	1	0	0	0	
10	0	0	0	0	0	701	1	0	0	0	
11	0	0	0	0	0	718	1	0	0	0	
12	0	0	0	0	0	734	1	0	0	0	
13	0	0	0	0	0	753	1	0	0	0	
14	0	0	0	0	2	774	1	0	0	0	
15	0	0	0	0	0	795	1	0	0	0	
0	0	0	0	0	0	817	1	0	0	0	
1	0	0	0	0	0	842	2	0	0	0	
2	0	0	0	0	0	866	2	0	0	0	
3	0	0	0	0	0	890	2	0	0	0	
4	0	0	0	0	0	913	2	0	0	0	
5	0	0	0	0	0	934	2	0	0	0	
6	0	0	0	0	3	953	3	0	0	0	
7	0	0	0	0	0	970	3	0	0	0	
8	0	0	0	0	0	983	3	0	0	0	
9	0	0	0	0	0	996	3	0	0	0	
10	0	0	0	0	0	1006	3	0	0	0	
11	0	0	0	0	0	1009	3	0	0	0	
12	0	0	0	0	0	1000	3	0	0	0	
13	0	0	0	0	0	976	3	0	0	0	
14	0	0	0	0	2	944	2	0	0	0	
15	0	0	0	0	0	907	2	0	0	0	
0	0	0	0	0	0	864	2	0	0	0	
1	0	0	0	0	0	819	1	0	0	0	
2	0	0	0	0	0	771	1	0	0	0	
3	0	0	0	0	0	729	1	0	0	0	
4	0	0	0	0	0	691	1	0	0	0	
5	0	0	0	0	0	659	1	0	0	0	
6	0	0	0	0	2	632	1	0	0	0	
7	0	0	0	0	0	610	0	0	0	0	
8	0	0	0	0	0	592	0	0	0	0	
9	0	0	0	0	0	579	0	0	0	0	
10	0	0	0	0	0	572	0	0	0	0	
11	0	0	0	0	0	563	0	0	0	0	
12	0	0	0	0	0	557	0	0	0	0	
13	0	0	0	0	0	550	0	0	0	0	
14	0	0	0	0	2	543	0	0	0	0	
15	0	0	0	0	0	534	0	0	0	0	
0	0	0	0	0	0	524	0	0	0	0	
1	0	0	0	0	0	514	0	0	0	0	
2	0	0	0	0	0	503	0	0	0	0	
3	0	0	0	0	0	490	0	0	0	0	
4	0	0	0	0	0	478	0	0	0	0	
5	0	0	0	0	0	469	0	0	0	0	
6	0	0	0	0	3	463	0	0	0	0	
7	0	0	0	0	0	457	0	0	0	0	
8	0	0	0	0	0	449	0	0	0	0	
9	0	0	0	0	0	440	0	0	0	0	
10	0	0	0	0	0	430	0	0	0	0	
11	0	0	0	0	0	421	0	0	0	0	
12	0	0	0	0	0	411	0	0	0	0	
13	0	0	0	0	0	402	0	0	0	0	
14	0	0	0	0	2	395	0	0	0	0	
15	0	0	0	0	0	392	0	0	0	0	
0	0	0	0	0	0	393	0	0	0	0	
1	0	0	0	0	0	396	0	0	0	0	
2	0	0	0	0	0	402	0	0	0	0	
3	0	0	0	0	0	405	0	0	0	0	
4	0	0	0	0	0	409	0	0	0	0	
5	0	0	0	0	0	415	0	0	0	0	
6	0	0	0	0	1	419	0	0	0	0	
7	0	0	0	0	0	423	0	0	0	0	
8	0	0	0	0	0	428	0	0	0	0	
9	0	0	0	0	0	434	0	0	0	0	
10	0	0	0	0	0	439	0	0	0	0	
11	0	0	0	0	0	445	0	0	0	0	
12	0	0	0	0	0	450	0	0	0	0	
13	0	0	0	0	0	454	0	0	0	0	
14	0	0	0	0	1	455	0	0	0	0	
15	0	0	0	0	0	456	0	0	0	0	
0	0	0	0	0	0	458	0	0	0	0	
1	0	0	0	0	0	458	0	0	0	0	
2	0	0	0	0	0	457	0	0	0	0	
3	0	0	0	0	0	457	0	0	0	0	
4	0	0	0	0	0	455	0	0	0	0	
5	0	0	0	0	0	452	0	0	0	0	
6	0	0	0	0	2	451	0	0	0	0	
7	0	0	0	0	0	449	0	0	0	0	
8	0	0	0	0	0	448	0	0	0	0	
9	0	0	0	0	0	446	0	0	0	0	
10	0	0	0	0	0	443	0	0	0	0	
11	0	0	0	0	0	440	0	0	0	0	
12	0	0	0	0	0	437	0	0	0	0	
13	0	0	0	0	0	434	0	0	0	0	
14	0	0	0	0	3	432	0	0	0	0	
15	0	0	0	0	0	428	0	0	0	0	
0	0	0	0	0	0	422	0	0	0	0	
1	0	0	0	0	0	415	0	0	0	0	
2	0	0	0	0	0	407	0	0	0	0	
3	0	0	0	0	0	400	0	0	0	0	
4	0	0	0	0	0	393	0	0	0	0	
5	0	0	0	0	0	386	0	0	0	0	
6	0	0	0	0	2	380	0	0	0	0	
7	0	0	0	0	0	371	0	0	0	0	
8	0	0	0	0	0	361	0	0	0	0	
9	0	0	0	0	0	350	0	0	0	0	
10	0	0	0	0	0	339	0	0	0	0	
11	0	0	0	0	0	329	0	0	0	0	
12	0	0	0	0	0	318	0	0	0	0	
13	0	0	0	0	0	308	0	0	0	0	
14	0	0	0	0	2	299	0	0	0	0	
15	0	0	0	0	0	291	0	0	0	0	
0	0	0	0	0	0	283	0	0	0	0	
1	0	0	0	0	0	277	0	0	0	0	
2	0	0	0	0	0	272	0	0	0	0	
3	0	0	0	0	0	268	0	0	0	0	
4	0	0	0	0	0	268	0	0	0	0	
5	0	0	0	0	0	269	0	0	0	0	
6	0	0	0	0	2	271	0	0	0	0	
7	0	0	0	0	0	275	0	0	0	0	
8	0	0	0	0	0	280	0	0	0	0	
9	0	0	0	0	0	288	0	0	0	0	
10	0	0	0	0	0	298	0	0	0	0	
11	0	0	0	0	0	309	0	0	0	0	
12	0	0	0	0	0	320	0	0	0	0	
13	0	0	0	0	0	334	0	0	0	0	
14	0	0	0	0	2	350	0	0	0	0	
15	0	0	0	0	0	366	0	0	0	0	
0	0	0	0	0	0	382	0	0	0	0	
1	0	0	0	0	0	397	0	0	0	0	
2	0	0	0	0	0	413	0	0	0	0	
3	0	0	0	0	0	428	0	0	0	0	
4	0	0	0	0	0	443	0	0	0	0	
5	0	0	0	0	0	459	0	0	0	0	
6	0	0	0	0	2	473	0	0	0	0	
7	0	0	0	0	0	487	0	0	0	0	
8	0	0	0	0	0	502	0	0	0	0	
9	0	0	0	0	0	514	0	0	0	0	
10	0	0	0	0	0	523	0	0	0	0	
11	0	0	0	0	0	530	0	0	0	0	
12	0	0	0	0	0	536	0	0	0	0	
13	0	0	0	0	0	540	0	0	0	0	
14	0	0	0	0	2	542	0	0	0	0	
15	0	0	0	0	0	543	0	0	0	0	
0	0	0	0	0	0	543	0	0	0	0	
1	0	0	0	0	0	543	0	0	0	0	
2	0	0	0	0	0	543	0	0	0	0	
3	0	0	0	0	0	542	0	0	0	0	
4	0	0	0	0	0	543	0	0	0	0	
5	0	0	0	0	0	545	0	0	0	0	
6	0	0	0	0	2	545	0	0	0	0	
7	0	0	0	0	0	546	0	0	0	0	
8	0	0	0	0	0	549	0	0	0	0	
9	0	0	0	0	0	552	0	0	0	0	
10	0	0	0	0	0	555	0	0	0	0	
11	0	0	0	0	0	559	0	0	0	0	
12	0	0	0	0	0	564	0	0	0	0	
13	0	0	0	0	0	569	0	0	0	0	
14	0	0	0	0	2	575	0	0	0	0	
15	0	0	0	0	0	582	0	0	0	0	
0	0	0	0	0	0	588	0	0	0	0	
1	0	0	0	0	0	594	0	0	0	0	
2	0	0	0	0	0	601	0	0	0	0	
3	0	0	0	0	0	607	0	0	0	0	
4	0	0	0	0	0	612	1	0	0	0	
5	0	0	0	0	0	617	0	0	0	0	
6	0	0	0	0	2	624	0	0	0	0	
7	0	0	0	0	0	629	1	0	0	0	
8	0	0	0	0	0	632	1	0	0	0	
9	0	0	0	0	0	635	0	0	0	0	
10	0	0	0	0	0	636	0	0	0	0	
11	0	0	0	0	0	637	1	0	0	0	
12	0	0	0	0	0	638	1	0	0	0	
13	0	0	0	0	0	637	1	0	0	0	
14	0	0	0	0	1	637	1	0	0	0	
15	0	0	0	0	0	637	1	0	0	0	
0	0	0	0	0	0	637	1	0	0	0	
1	0	0	0	0	0	636	1	0	0	0	
2	0	0	0	0	0	638	0	0	0	0	
3	0	0	0	0	0	639	1	0	0	0	
4	0	0	0	0	0	640	1	0	0	0	
5	0	0	0	0	0	641	1	0	0	0	
6	0	0	0	0	1	644	1	0	0	0	
7	0	0	0	0	0	647	1	0	0	0	
8	0	0	0	0	0	649	1	0	0	0	
9	0	0	0	0	0	651	1	0	0	0	
10	0	0	0	0	0	655	1	0	0	0	
11	0	0	0	0	0	659	1	0	0	0	
12	0	0	0	0	0	662	1	0	0	0	
13	0	0	0	0	0	665	1	0	0	0	
14	0	0	0	0	1	670	1	0	0	0	
15	0	0	0	0	0	673	1	0	0	0	
0	0	0	0	0	0	676	1	0	0	0	
1	0	0	0	0	0	680	1	0	0	0	
2	0	0	0	0	0	684	1	0	0	0	
3	0	0	0	0	0	688	1	0	0	0	
4	0	0	0	0	0	692	1	0	0	0	
5	0	0	0	0	0	696	1	0	0	0	
6	0	0	0	0	2	699	1	0	0	0	
7	0	0	0	0	0	700	1	0	0	0	
8	0	0	0	0	0	702	1	0	0	0	
9	0	0	0	0	0	702	1	0	0	0	
10	0	0	0	0	0	703	1	0	0	0	
11	0	0	0	0	0	704	1	0	0	0	
12	0	0	0	0	0	704	1	0	0	0	
13	0	0	0	0	0	707	1	0	0	0	
14	0	0	0	0	3	708	1	0	0	0	
15	0	0	0	0	0	710	1	0	0	0	
0	0	0	0	0	0	711	1	0	0	0	
1	0	0	0	0	0	711	1	0	0	0	
2	0	0	0	0	0	709	1	0	0	0	
3	0	0	0	0	0	707	1	0	0	0	
4	0	0	0	0	0	705	1	0	0	0	
5	0	0	0	0	0	703	1	0	0	0	
6	0	0	0	0	2	701	1	0	0	0	
7	0	0	0	0	0	699	1	0	0	0	
8	0	0	0	0	0	697	1	0	0	0	
9	0	0	0	0	0	694	1	0	0	0	
10	0	0	0	0	0	692	1	0	0	0	
11	0	0	0	0	0	690	1	0	0	0	
12	0	0	0	0	0	688	1	0	0	0	
13	0	0	0	0	0	686	1	0	0	0	
14	0	0	0	0	2	683	1	0	0	0	
15	0	0	0	0	0	679	1	0	0	0	
0	0	0	0	0	0	674	1	0	0	0	
1	0	0	0	0	0	671	1	0	0	0	
2	0	0	0	0	0	666	1	0	0	0	
3	0	0	0	0	0	661	1	0	0	0	
4	0	0	0	0	0	656	1	0	0	0	
5	0	0	0	0	0	651	1	0	0	0	
6	0	0	0	0	3	646	1	0	0	0	
7	0	0	0	0	0	640	1	0	0	0	
8	0	0	0	0	0	635	1	0	0	0	
9	0	0	0	0	0	630	0	0	0	0	
10	0	0	0	0	0	625	0	0	0	0	
11	0	0	0	0	0	620	0	0	0	0	
12	0	0	0	0	0	614	0	0	0	0	
13	0	0	0	0	0	609	0	0	0	0	
14	0	0	0	0	2	603	0	0	0	0	
15	0	0	0	0	0	599	0	0	0	0	
0	0	0	0	0	0	595	0	0	0	0	
1	0	0	0	0	0	591	0	0	0	0	
2	0	0	0	0	0	586	0	0	0	0	
3	0	0	0	0	0	583	0	0	0	0	
4	0	0	0	0	0	577	0	0	0	0	
5	0	0	0	0	0	572	0	0	0	0	
6	0	0	0	0	2	567	0	0	0	0	
7	0	0	0	0	0	562	0	0	0	0	
8	0	0	0	0	0	555	0	0	0	0	
9	0	0	0	0	0	549	0	0	0	0	
10	0	0	0	0	0	544	0	0	0	0	
11	0	0	0	0	0	540	0	0	0	0	
12	0	0	0	0	0	536	0	0	0	0	
13	0	0	0	0	0	532	0	0	0	0	
14	0	0	0	0	2	529	0	0	0	0	
15	0	0	0	0	0	527	0	0	0	0	
0	0	0	0	0	0	524	0	0	0	0	
1	0	0	0	0	0	521	0	0	0	0	
2	0	0	0	0	0	519	0	0	0	0	
3	0	0	0	0	0	517	0	0	0	0	
4	0	0	0	0	0	515	0	0	0	0	
5	0	0	0	0	0	514	0	0	0	0	
6	0	0	0	0	3	513	0	0	0	0	
7	0	0	0	0	0	511	0	0	0	0	
8	0	0	0	0	0	509	0	0	0	0	
9	0	0	0	0	0	507	0	0	0	0	
10	0	0	0	0	0	504	0	0	0	0	
11	0	0	0	0	0	501	0	0	0	0	
12	0	0	0	0	0	498	0	0	0	0	
13	0	0	0	0	0	496	0	0	0	0	
14	0	0	0	0	2	492	0	0	0	0	
15	0	0	0	0	0	488	0	0	0	0	
0	0	0	0	0	0	485	0	0	0	0	
1	0	0	0	0	0	481	0	0	0	0	
2	0	0	0	0	0	476	0	0	0	0	
3	0	0	0	0	0	472	0	0	0	0	
4	0	0	0	0	0	466	0	0	0	0	
5	0	0	0	0	0	460	0	0	0	0	
6	0	0	0	0	2	454	0	0	0	0	
7	0	0	0	0	0	448	0	0	0	0	
8	0	0	0	0	0	441	0	0	0	0	
9	0	0	0	0	0	435	0	0	0	0	
10	0	0	0	0	0	430	0	0	0	0	
11	0	0	0	0	0	425	0	0	0	0	
12	0	0	0	0	0	420	0	0	0	0	
13	0	0	0	0	0	415	0	0	0	0	
14	0	0	0	0	1	409	0	0	0	0	
15	0	0	0	0	0	403	0	0	0	0	
0	0	0	0	0	0	398	0	0	0	0	
1	0	0	0	0	0	391	0	0	0	0	
2	0	0	0	0	0	385	0	0	0	0	
3	0	0	0	0	0	380	0	0	0	0	
4	0	0	0	0	0	372	0	0	0	0	
5	0	0	0	0	0	366	0	0	0	0	
6	0	0	0	0	1	359	0	0	0	0	
7	0	0	0	0	0	352	0	0	0	0	
8	0	0	0	0	0	347	0	0	0	0	
9	0	0	0	0	0	342	0	0	0	0	
10	0	0	0	0	0	336	0	0	0	0	
11	0	0	0	0	0	332	0	0	0	0	
12	0	0	0	0	0	328	0	0	0	0	
13	0	0	0	0	0	324	0	0	0	0	
14	0	0	0	0	1	320	0	0	0	0	
15	0	0	0	0	0	317	0	0	0	0	
0	0	0	0	0	0	314	0	0	0	0	
1	0	0	0	0	0	308	0	0	0	0	
2	0	0	0	0	0	304	0	0	0	0	
3	0	0	0	0	0	301	0	0	0	0	
4	0	0	0	0	0	297	0	0	0	0	
5	0	0	0	0	0	294	0	0	0	0	
6	0	0	0	0	2	290	0	0	0	0	
7	0	0	0	0	0	287	0	0	0	0	
8	0	0	0	0	0	286	0	0	0	0	
9	0	0	0	0	0	284	0	0	0	0	
10	0	0	0	0	0	283	0	0	0	0	
11	0	0	0	0	0	283	0	0	0	0	
12	0	0	0	0	0	283	0	0	0	0	
13	0	0	0	0	0	284	0	0	0	0	
14	0	0	0	0	2	286	0	0	0	0	
15	0	0	0	0	0	289	0	0	0	0	
0	0	0	0	0	0	293	0	0	0	0	
1	0	0	0	0	0	298	0	0	0	0	
2	0	0	0	0	0	305	0	0	0	0	
3	0	0	0	0	0	312	0	0	0	0	
4	0	0	0	0	0	320	0	0	0	0	
5	0	0	0	0	0	329	0	0	0	0	
6	0	0	0	0	2	337	0	0	0	0	
7	0	0	0	0	0	345	0	0	0	0	
8	0	0	0	0	0	353	0	0	0	0	
9	0	0	0	0	0	361	0	0	0	0	
10	0	0	0	0	0	369	0	0	0	0	
11	0	0	0	0	0	377	0	0	0	0	
12	0	0	0	0	0	387	0	0	0	0	
13	0	0	0	0	0	398	0	0	0	0	
14	0	0	0	0	2	408	0	0	0	0	
15	0	0	0	0	0	419	0	0	0	0	
0	0	0	0	0	0	431	0	0	0	0	
1	0	0	0	0	0	443	0	0	0	0	
2	0	0	0	0	0	455	0	0	0	0	
3	0	0	0	0	0	468	0	0	0	0	
4	0	0	0	0	0	480	0	0	0	0	
5	0	0	0	0	0	491	0	0	0	0	
6	0	0	0	0	2	502	0	0	0	0	
7	0	0	0	0	0	512	0	0	0	0	
8	0	0	0	0	0	521	0	0	0	0	
9	0	0	0	0	0	528	0	0	0	0	
10	0	0	0	0	0	534	0	0	0	0	
11	0	0	0	0	0	542	0	0	0	0	
12	0	0	0	0	0	549	0	0	0	0	
13	0	0	0	0	0	554	0	0	0	0	
14	0	0	0	0	2	560	0	0	0	0	
15	0	0	0	0	0	567	0	0	0	0	
0	0	0	0	0	0	575	0	0	0	0	
1	0	0	0	0	0	581	0	0	0	0	
2	0	0	0	0	0	587	0	0	0	0	
3	0	0	0	0	0	591	0	0	0	0	
4	0	0	0	0	0	595	0	0	0	0	
5	0	0	0	0	0	600	0	0	0	0	
6	0	0	0	0	2	603	0	0	0	0	
7	0	0	0	0	0	606	0	0	0	0	
8	0	0	0	0	0	608	0	0	0	0	
9	0	0	0	0	0	610	0	0	0	0	
10	0	0	0	0	0	613	0	0	0	0	
11	0	0	0	0	0	615	0	0	0	0	
12	0	0	0	0	0	616	1	0	0	0	
13	0	0	0	0	0	616	0	0	0	0	
14	0	0	0	0	3	617	0	0	0	0	
15	0	0	0	0	0	618	0	0	0	0	
0	0	0	0	0	0	619	0	0	0	0	
1	0	0	0	0	0	618	0	0	0	0	
2	0	0	0	0	0	620	0	0	0	0	
3	0	0	0	0	0	621	0	0	0	0	
4	0	0	0	0	0	622	1	0	0	0	
5	0	0	0	0	0	624	0	0	0	0	
6	0	0	0	0	3	625	0	0	0	0	
7	0	0	0	0	0	625	1	0	0	0	
8	0	0	0	0	0	626	1	0	0	0	
9	0	0	0	0	0	627	0	0	0	0	
10	0	0	0	0	0	627	0	0	0	0	
11	0	0	0	0	0	625	0	0	0	0	
12	0	0	0	0	0	623	1	0	0	0	
13	0	0	0	0	0	622	0	0	0	0	
14	0	0	0	0	2	621	0	0	0	0	
15	0	0	0	0	0	619	0	0	0	0	
0	0	0	0	0	0	617	0	0	0	0	
1	0	0	0	0	0	616	0	0	0	0	
2	0	0	0	0	0	613	0	0	0	0	
3	0	0	0	0	0	611	0	0	0	0	
4	0	0	0	0	0	608	1	0	0	0	
5	0	0	0	0	0	606	0	0	0	0	
6	0	0	0	0	2	604	0	0	0	0	
7	0	0	0	0	0	600	0	0	0	0	
8	0	0	0	0	0	598	0	0	0	0	
9	0	0	0	0	0	593	0	0	0	0	
10	0	0	0	0	0	590	0	0	0	0	
11	0	0	0	0	0	585	0	0	0	0	
12	0	0	0	0	0	582	0	0	0	0	
13	0	0	0	0	0	578	0	0	0	0	
14	0	0	0	0	1	575	0	0	0	0	
15	0	0	0	0	0	572	0	0	0	0	
0	0	0	0	0	0	570	0	0	0	0	
1	0	0	0	0	0	567	0	0	0	0	
2	0	0	0	0	0	563	0	0	0	0	
3	0	0	0	0	0	560	0	0	0	0	
4	0	0	0	0	0	558	0	0	0	0	
5	0	0	0	0	0	556	0	0	0	0	
6	0	0	0	0	1	553	0	0	0	0	
7	0	0	0	0	0	553	0	0	0	0	
8	0	0	0	0	0	551	0	0	0	0	
9	0	0	0	0	0	550	0	0	0	0	
10	0	0	0	0	0	547	0	0	0	0	
11	0	0	0	0	0	545	0	0	0	0	
12	0	0	0	0	0	543	0	0	0	0	
13	0	0	0	0	0	540	0	0	0	0	
14	0	0	0	0	3	539	0	0	0	0	
15	0	0	0	0	0	537	0	0	0	0	
0	0	0	0	0	0	535	0	0	0	0	
1	0	0	0	0	0	533	0	0	0	0	
2	0	0	0	0	0	530	0	0	0	0	
3	0	0	0	0	0	528	0	0	0	0	
4	0	0	0	0	0	527	0	0	0	0	
5	0	0	0	0	0	527	0	0	0	0	
6	0	0	0	0	2	526	0	0	0	0	
7	0	0	0	0	0	524	0	0	0	0	
8	0	0	0	0	0	523	0	0	0	0	
9	0	0	0	0	0	520	0	0	0	0	
10	0	0	0	0	0	518	0	0	0	0	
11	0	0	0	0	0	516	0	0	0	0	
12	0	0	0	0	0	514	0	0	0	0	
13	0	0	0	0	0	510	0	0	0	0	
14	0	0	0	0	3	507	0	0	0	0	
15	0	0	0	0	0	502	0	0	0	0	
0	0	0	0	0	0	499	0	0	0	0	
1	0	0	0	0	0	496	0	0	0	0	
2	0	0	0	0	0	495	0	0	0	0	
3	0	0	0	0	0	492	0	0	0	0	
4	0	0	0	0	0	490	0	0	0	0	
5	0	0	0	0	0	487	0	0	0	0	
6	0	0	0	0	2	485	0	0	0	0	
7	0	0	0	0	0	484	0	0	0	0	
8	0	0	0	0	0	483	0	0	0	0	
9	0	0	0	0	0	481	0	0	0	0	
10	0	0	0	0	0	479	0	0	0	0	
11	0	0	0	0	0	475	0	0	0	0	
12	0	0	0	0	0	471	0	0	0	0	
13	0	0	0	0	0	468	0	0	0	0	
14	0	0	0	0	2	465	0	0	0	0	
15	0	0	0	0	0	462	0	0	0	0	
0	0	0	0	0	0	461	0	0	0	0	
1	0	0	0	0	0	458	0	0	0	0	
2	0	0	0	0	0	455	0	0	0	0	
3	0	0	0	0	0	453	0	0	0	0	
4	0	0	0	0	0	451	0	0	0	0	
5	0	0	0	0	0	448	0	0	0	0	
6	0	0	0	0	2	446	0	0	0	0	
7	0	0	0	0	0	444	0	0	0	0	
8	0	0	0	0	0	443	0	0	0	0	
9	0	0	0	0	0	440	0	0	0	0	
10	0	0	0	0	0	438	0	0	0	0	
11	0	0	0	0	0	435	0	0	0	0	
12	0	0	0	0	0	432	0	0	0	0	
13	0	0	0	0	0	429	0	0	0	0	
14	0	0	0	0	2	425	0	0	0	0	
15	0	0	0	0	0	422	0	0	0	0	
0	0	0	0	0	0	419	0	0	0	0	
1	0	0	0	0	0	415	0	0	0	0	
2	0	0	0	0	0	412	0	0	0	0	
3	0	0	0	0	0	410	0	0	0	0	
4	0	0	0	0	0	408	0	0	0	0	
5	0	0	0	0	0	406	0	0	0	0	
6	0	0	0	0	2	403	0	0	0	0	
7	0	0	0	0	0	399	0	0	0	0	
8	0	0	0	0	0	397	0	0	0	0	
9	0	0	0	0	0	394	0	0	0	0	
10	0	0	0	0	0	392	0	0	0	0	
11	0	0	0	0	0	391	0	0	0	0	
12	0	0	0	0	0	391	0	0	0	0	
13	0	0	0	0	0	393	0	0	0	0	
14	0	0	0	0	2	394	0	0	0	0	
15	0	0	0	0	0	395	0	0	0	0	
0	0	0	0	0	0	395	0	0	0	0	
1	0	0	0	0	0	396	0	0	0	0	
2	0	0	0	0	0	398	0	0	0	0	
3	0	0	0	0	0	399	0	0	0	0	
4	0	0	0	0	0	400	0	0	0	0	
5	0	0	0	0	0	402	0	0	0	0	
6	0	0	0	0	2	404	0	0	0	0	
7	0	0	0	0	0	406	0	0	0	0	
8	0	0	0	0	0	408	0	0	0	0	
9	0	0	0	0	0	409	0	0	0	0	
10	0	0	0	0	0	412	0	0	0	0	
11	0	0	0	0	0	415	0	0	0	0	
12	0	0	0	0	0	419	0	0	0	0	
13	0	0	0	0	0	422	0	0	0	0	
14	0	0	0	0	2	424	0	0	0	0	
15	0	0	0	0	0	427	0	0	0	0	
0	0	0	0	0	0	431	0	0	0	0	
1	0	0	0	0	0	434	0	0	0	0	
2	0	0	0	0	0	437	0	0	0	0	
3	0	0	0	0	0	440	0	0	0	0	
4	0	0	0	0	0	442	0	0	0	0	
5	0	0	0	0	0	446	0	0	0	0	
6	0	0	0	0	0	450	0	0	0	0	
7	0	0	0	0	0	454	0	0	0	0	
8	0	0	0	0	0	458	0	0	0	0	
9	0	0	0	0	0	464	0	0	0	0	
10	0	0	0	0	0	469	0	0	0	0	
11	0	0	0	0	0	473	0	0	0	0	
12	0	0	0	0	0	479	0	0	0	0	
13	0	0	0	0	0	482	0	0	0	0	
14	0	0	0	0	1	485	0	0	0	0	
15	0	0	0	0	0	487	0	0	0	0	
0	0	0	0	0	0	491	0	0	0	0	
1	0	0	0	0	0	494	0	0	0	0	
2	0	0	0	0	0	497	0	0	0	0	
3	0	0	0	0	0	499	0	0	0	0	
4	0	0	0	0	0	501	0	0	0	0	
5	0	0	0	0	0	504	0	0	0	0	
6	0	0	0	0	1	505	0	0	0	0	
7	0	0	0	0	0	508	0	0	0	0	
8	0	0	0	0	0	510	0	0	0	0	
9	0	0	0	0	0	512	0	0	0	0	
10	0	0	0	0	0	515	0	0	0	0	
11	0	0	0	0	0	518	0	0	0	0	
12	0	0	0	0	0	520	0	0	0	0	
13	0	0	0	0	0	520	0	0	0	0	
14	0	0	0	0	2	520	0	0	0	0	
15	0	0	0	0	0	521	0	0	0	0	
0	0	0	0	0	0	523	0	0	0	0	
1	0	0	0	0	0	526	0	0	0	0	
2	0	0	0	0	0	529	0	0	0	0	
3	0	0	0	0	0	532	0	0	0	0	
4	0	0	0	0	0	535	0	0	0	0	
5	0	0	0	0	0	536	0	0	0	0	
6	0	0	0	0	2	538	0	0	0	0	
7	0	0	0	0	0	540	0	0	0	0	
8	0	0	0	0	0	541	0	0	0	0	
9	0	0	0	0	0	543	0	0	0	0	
10	0	0	0	0	0	545	0	0	0	0	
11	0	0	0	0	0	548	0	0	0	0	
12	0	0	0	0	0	551	0	0	0	0	
13	0	0	0	0	0	554	0	0	0	0	
14	0	0	0	0	2	557	0	0	0	0	
15	0	0	0	0	0	560	0	0	0	0	
0	0	0	0	0	0	561	0	0	0	0	
1	0	0	0	0	0	563	0	0	0	0	
2	0	0	0	0	0	565	0	0	0	0	
3	0	0	0	0	0	564	0	0	0	0	
4	0	0	0	0	0	564	0	0	0	0	
5	0	0	0	0	0	564	0	0	0	0	
6	0	0	0	0	2	564	0	0	0	0	
7	0	0	0	0	0	562	0	0	0	0	
8	0	0	0	0	0	560	0	0	0	0	
9	0	0	0	0	0	560	0	0	0	0	
10	0	0	0	0	0	560	0	0	0	0	
11	0	0	0	0	0	558	0	0	0	0	
12	0	0	0	0	0	556	0	0	0	0	
13	0	0	0	0	0	553	0	0	0	0	
14	0	0	0	0	2	551	0	0	0	0	
15	0	0	0	0	0	547	0	0	0	0	
0	0	0	0	0	0	543	0	0	0	0	
1	0	0	0	0	0	541	0	0	0	0	
2	0	0	0	0	0	539	0	0	0	0	
3	0	0	0	0	0	536	0	0	0	0	
4	0	0	0	0	0	534	0	0	0	0	
5	0	0	0	0	0	530	0	0	0	0	
6	0	0	0	0	3	528	0	0	0	0	
7	0	0	0	0	0	526	0	0	0	0	
8	0	0	0	0	0	525	0	0	0	0	
9	0	0	0	0	0	524	0	0	0	0	
10	0	0	0	0	0	524	0	0	0	0	
11	0	0	0	0	0	523	0	0	0	0	
12	0	0	0	0	0	521	0	0	0	0	
13	0	0	0	0	0	518	0	0	0	0	
14	0	0	0	0	2	516	0	0	0	0	
15	0	0	0	0	0	514	0	0	0	0	
0	0	0	0	0	0	512	0	0	0	0	
1	0	0	0	0	0	511	0	0	0	0	
2	0	0	0	0	0	509	0	0	0	0	
3	0	0	0	0	0	508	0	0	0	0	
4	0	0	0	0	0	508	0	0	0	0	
5	0	0	0	0	0	509	0	0	0	0	
6	0	0	0	0	2	509	0	0	0	0	
7	0	0	0	0	0	508	0	0	0	0	
8	0	0	0	0	0	507	0	0	0	0	
9	0	0	0	0	0	508	0	0	0	0	
10	0	0	0	0	0	508	0	0	0	0	
11	0	0	0	0	0	508	0	0	0	0	
12	0	0	0	0	0	508	0	0	0	0	
13	0	0	0	0	0	510	0	0	0	0	
14	0	0	0	0	3	510	0	0	0	0	
15	0	0	0	0	0	510	0	0	0	0	
0	0	0	0	0	0	511	0	0	0	0	
1	0	0	0	0	0	512	0	0	0	0	
2	0	0	0	0	0	514	0	0	0	0	
3	0	0	0	0	0	516	0	0	0	0	
4	0	0	0	0	0	518	0	0	0	0	
5	0	0	0	0	0	519	0	0	0	0	
6	0	0	0	0	2	521	0	0	0	0	
7	0	0	0	0	0	523	0	0	0	0	
8	0	0	0	0	0	526	0	0	0	0	
9	0	0	0	0	0	529	0	0	0	0	
10	0	0	0	0	0	531	0	0	0	0	
11	0	0	0	0	0	535	0	0	0	0	
12	0	0	0	0	0	539	0	0	0	0	
13	0	0	0	0	0	541	0	0	0	0	
14	0	0	0	0	3	543	0	0	0	0	
15	0	0	0	0	0	547	0	0	0	0	
0	0	0	0	0	0	551	0	0	0	0	
1	0	0	0	0	0	555	0	0	0	0	
2	0	0	0	0	0	559	0	0	0	0	
3	0	0	0	0	0	563	0	0	0	0	
4	0	0	0	0	0	567	0	0	0	0	
5	0	0	0	0	0	570	0	0	0	0	
6	0	0	0	0	1	574	0	0	0	0	
7	0	0	0	0	0	578	0	0	0	0	
8	0	0	0	0	0	582	0	0	0	0	
9	0	0	0	0	0	587	0	0	0	0	
10	0	0	0	0	0	591	0	0	0	0	
11	0	0	0	0	0	596	0	0	0	0	
12	0	0	0	0	0	600	0	0	0	0	
13	0	0	0	0	0	604	0	0	0	0	
14	0	0	0	0	1	606	0	0	0	0	
15	0	0	0	0	0	606	0	0	0	0	
0	0	0	0	0	0	606	0	0	0	0	
1	0	0	0	0	0	606	0	0	0	0	
2	0	0	0	0	0	607	0	0	0	0	
3	0	0	0	0	0	608	0	0	0	0	
4	0	0	0	0	0	608	0	0	0	0	
5	0	0	0	0	0	609	0	0	0	0	
6	0	0	0	0	1	610	0	0	0	0	
7	0	0	0	0	0	610	0	0	0	0	
8	0	0	0	0	0	611	0	0	0	0	
9	0	0	0	0	0	616	0	0	0	0	
10	0	0	0	0	0	623	0	0	0	0	
11	0	0	0	0	0	630	0	0	0	0	
12	0	0	0	0	0	640	1	0	0	0	
13	0	0	0	0	0	652	1	0	0	0	
14	0	0	0	0	2	665	0	0	0	0	
15	0	0	0	0	0	678	1	0	0	0	
0	0	0	0	0	0	692	1	0	0	0	
1	0	0	0	0	0	707	1	0	0	0	
2	0	0	0	0	0	719	1	0	0	0	
3	0	0	0	0	0	731	1	0	0	0	
4	0	0	0	0	0	743	1	0	0	0	
5	0	0	0	0	0	758	1	0	0	0	
6	0	0	0	0	2	773	1	0	0	0	
7	0	0	0	0	0	788	1	0	0	0	
8	0	0	0	0	0	806	1	0	0	0	
9	0	0	0	0	0	823	1	0	0	0	
10	0	0	0	0	0	841	1	0	0	0	
11	0	0	0	0	0	861	2	0	0	0	
12	0	0	0	0	0	884	2	0	0	0	
13	0	0	0	0	0	907	2	0	0	0	
14	0	0	0	0	2	932	2	0	0	0	
15	0	0	0	0	0	956	3	0	0	0	
0	0	0	0	0	0	980	3	0	0	0	
1	0	0	0	0	0	1004	3	0	0	0	
2	0	0	0	0	0	1021	3	0	0	0	
3	0	0	0	0	0	1022	3	0	0	0	
4	0	0	0	0	0	1022	3	0	0	0	
5	0	0	0	0	0	1022	3	0	0	0	
6	0	0	0	0	3	1022	3	0	0	0	
7	0	0	0	0	0	1022	3	0	0	0	
8	0	0	0	0	0	1022	3	0	0	0	
9	0	0	0	0	0	1022	3	0	0	0	
10	0	0	0	0	0	1022	3	0	0	0	
11	0	0	0	0	0	1022	3	0	0	0	
12	0	0	0	0	0	990	3	0	0	0	
13	0	0	0	0	0	945	2	0	0	0	
14	0	0	0	0	3	894	2	0	0	0	
15	0	0	0	0	0	838	2	0	0	0	
0	0	0	0	0	0	778	1	0	0	0	
1	0	0	0	0	0	723	1	0	0	0	
2	0	0	0	0	0	672	1	0	0	0	
3	0	0	0	0	0	628	0	0	0	0	
4	0	0	0	0	0	590	0	0	0	0	
5	0	0	0	0	0	556	0	0	0	0	
6	0	0	0	0	2	530	0	0	0	0	
7	0	0	0	0	0	507	0	0	0	0	
8	0	0	0	0	0	487	0	0	0	0	
9	0	0	0	0	0	471	0	0	0	0	
10	0	0	0	0	0	456	0	0	0	0	
11	0	0	0	0	0	444	0	0	0	0	
12	0	0	0	0	0	431	0	0	0	0	
13	0	0	0	0	0	419	0	0	0	0	
14	0	0	0	0	2	406	0	0	0	0	
15	0	0	0	0	0	392	0	0	0	0	
0	0	0	0	0	0	379	0	0	0	0	
1	0	0	0	0	0	367	0	0	0	0	
2	0	0	0	0	0	355	0	0	0	0	
3	0	0	0	0	0	343	0	0	0	0	
4	0	0	0	0	0	331	0	0	0	0	
5	0	0	0	0	0	318	0	0	0	0	
6	0	0	0	0	3	304	0	0	0	0	
7	0	0	0	0	0	289	0	0	0	0	
8	0	0	0	0	0	275	0	0	0	0	
9	0	0	0	0	0	262	0	0	0	0	
10	0	0	0	0	0	252	0	0	0	0	
11	0	0	0	0	0	245	0	0	0	0	
12	0	0	0	0	0	239	0	0	0	0	
13	0	0	0	0	0	236	0	0	0	0	
14	0	0	0	0	2	235	0	0	0	0	
15	0	0	0	0	0	235	0	0	0	0	
0	0	0	0	0	0	237	0	0	0	0	
1	0	0	0	0	0	238	0	0	0	0	
2	0	0	0	0	0	238	0	0	0	0	
3	0	0	0	0	0	238	0	0	0	0	
4	0	0	0	0	0	238	0	0	0	0	
5	0	0	0	0	0	238	0	0	0	0	
6	0	0	0	0	2	240	0	0	0	0	
7	0	0	0	0	0	247	0	0	0	0	
8	0	0	0	0	0	255	0	0	0	0	
9	0	0	0	0	0	262	0	0	0	0	
10	0	0	0	0	0	268	0	0	0	0	
11	0	0	0	0	0	274	0	0	0	0	
12	0	0	0	0	0	281	0	0	0	0	
13	0	0	0	0	0	286	0	0	0	0	
14	0	0	0	0	2	290	0	0	0	0	
15	0	0	0	0	0	295	0	0	0	0	
0	0	0	0	0	0	299	0	0	0	0	
1	0	0	0	0	0	305	0	0	0	0	
2	0	0	0	0	0	310	0	0	0	0	
3	0	0	0	0	0	315	0	0	0	0	
4	0	0	0	0	0	319	0	0	0	0	
5	0	0	0	0	0	323	0	0	0	0	
6	0	0	0	0	1	327	0	0	0	0	
7	0	0	0	0	0	330	0	0	0	0	
8	0	0	0	0	0	333	0	0	0	0	
9	0	0	0	0	0	337	0	0	0	0	
10	0	0	0	0	0	340	0	0	0	0	
11	0	0	0	0	0	343	0	0	0	0	
12	0	0	0	0	0	345	0	0	0	0	
13	0	0	0	0	0	348	0	0	0	0	
14	0	0	0	0	1	352	0	0	0	0	
15	0	0	0	0	0	358	0	0	0	0	
0	0	0	0	0	0	364	0	0	0	0	
1	0	0	0	0	0	370	0	0	0	0	
2	0	0	0	0	0	376	0	0	0	0	
3	0	0	0	0	0	384	0	0	0	0	
4	0	0	0	0	0	391	0	0	0	0	
5	0	0	0	0	0	398	0	0	0	0	
6	0	0	0	0	2	404	0	0	0	0	
7	0	0	0	0	0	411	0	0	0	0	
8	0	0	0	0	0	419	0	0	0	0	
9	0	0	0	0	0	425	0	0	0	0	
10	0	0	0	0	0	431	0	0	0	0	
11	0	0	0	0	0	437	0	0	0	0	
12	0	0	0	0	0	444	0	0	0	0	
13	0	0	0	0	0	451	0	0	0	0	
14	0	0	0	0	3	462	0	0	0	0	
15	0	0	0	0	0	473	0	0	0	0	
0	0	0	0	0	0	484	0	0	0	0	
1	0	0	0	0	0	493	0	0	0	0	
2	0	0	0	0	0	501	0	0	0	0	
3	0	0	0	0	0	508	0	0	0	0	
4	0	0	0	0	0	514	0	0	0	0	
5	0	0	0	0	0	519	0	0	0	0	
6	0	0	0	0	2	523	0	0	0	0	
7	0	0	0	0	0	527	0	0	0	0	
8	0	0	0	0	0	531	0	0	0	0	
9	0	0	0	0	0	536	0	0	0	0	
10	0	0	0	0	0	540	0	0	0	0	
11	0	0	0	0	0	543	0	0	0	0	
12	0	0	0	0	0	547	0	0	0	0	
13	0	0	0	0	0	551	0	0	0	0	
14	0	0	0	0	3	554	0	0	0	0	
15	0	0	0	0	0	558	0	0	0	0	
0	0	0	0	0	0	561	0	0	0	0	
1	0	0	0	0	0	564	0	0	0	0	
2	0	0	0	0	0	567	0	0	0	0	
3	0	0	0	0	0	569	0	0	0	0	
4	0	0	0	0	0	570	0	0	0	0	
5	0	0	0	0	0	572	0	0	0	0	
6	0	0	0	0	2	573	0	0	0	0	
7	0	0	0	0	0	573	0	0	0	0	
8	0	0	0	0	0	572	0	0	0	0	
9	0	0	0	0	0	569	0	0	0	0	
10	0	0	0	0	0	566	0	0	0	0	
11	0	0	0	0	0	564	0	0	0	0	
12	0	0	0	0	0	560	0	0	0	0	
13	0	0	0	0	0	555	0	0	0	0	
14	0	0	0	0	2	550	0	0	0	0	
15	0	0	0	0	0	547	0	0	0	0	
0	0	0	0	0	0	546	0	0	0	0	
1	0	0	0	0	0	546	0	0	0	0	
2	0	0	0	0	0	545	0	0	0	0	
3	0	0	0	0	0	544	0	0	0	0	
4	0	0	0	0	0	543	0	0	0	0	
5	0	0	0	0	0	543	0	0	0	0	
6	0	0	0	0	2	542	0	0	0	0	
7	0	0	0	0	0	540	0	0	0	0	
8	0	0	0	0	0	538	0	0	0	0	
9	0	0	0	0	0	536	0	0	0	0	
10	0	0	0	0	0	533	0	0	0	0	
11	0	0	0	0	0	531	0	0	0	0	
12	0	0	0	0	0	531	0	0	0	0	
13	0	0	0	0	0	529	0	0	0	0	
14	0	0	0	0	2	527	0	0	0	0	
15	0	0	0	0	0	525	0	0	0	0	
0	0	0	0	0	0	523	0	0	0	0	
1	0	0	0	0	0	522	0	0	0	0	
2	0	0	0	0	0	519	0	0	0	0	
3	0	0	0	0	0	517	0	0	0	0	
4	0	0	0	0	0	515	0	0	0	0	
5	0	0	0	0	0	512	0	0	0	0	
6	0	0	0	0	3	509	0	0	0	0	
7	0	0	0	0	0	509	0	0	0	0	
8	0	0	0	0	0	508	0	0	0	0	
9	0	0	0	0	0	506	0	0	0	0	
10	0	0	0	0	0	504	0	0	0	0	
11	0	0	0	0	0	503	0	0	0	0	
12	0	0	0	0	0	499	0	0	0	0	
13	0	0	0	0	0	495	0	0	0	0	
14	0	0	0	0	2	492	0	0	0	0	
15	0	0	0	0	0	489	0	0	0	0	
0	0	0	0	0	0	486	0	0	0	0	
1	0	0	0	0	0	483	0	0	0	0	
2	0	0	0	0	0	480	0	0	0	0	
3	0	0	0	0	0	477	0	0	0	0	
4	0	0	0	0	0	472	0	0	0	0	
5	0	0	0	0	0	470	0	0	0	0	
6	0	0	0	0	2	468	0	0	0	0	
7	0	0	0	0	0	467	0	0	0	0	
8	0	0	0	0	0	465	0	0	0	0	
9	0	0	0	0	0	462	0	0	0	0	
10	0	0	0	0	0	458	0	0	0	0	
11	0	0	0	0	0	454	0	0	0	0	
12	0	0	0	0	0	449	0	0	0	0	
13	0	0	0	0	0	445	0	0	0	0	
14	0	0	0	0	1	443	0	0	0	0	
15	0	0	0	0	0	441	0	0	0	0	
0	0	0	0	0	0	440	0	0	0	0	
1	0	0	0	0	0	441	0	0	0	0	
2	0	0	0	0	0	441	0	0	0	0	
3	0	0	0	0	0	441	0	0	0	0	
4	0	0	0	0	0	441	0	0	0	0	
5	0	0	0	0	0	440	0	0	0	0	
6	0	0	0	0	1	439	0	0	0	0	
7	0	0	0	0	0	437	0	0	0	0	
8	0	0	0	0	0	435	0	0	0	0	
9	0	0	0	0	0	433	0	0	0	0	
10	0	0	0	0	0	432	0	0	0	0	
11	0	0	0	0	0	431	0	0	0	0	
12	0	0	0	0	0	429	0	0	0	0	
13	0	0	0	0	0	428	0	0	0	0	
14	0	0	0	0	1	428	0	0	0	0	
15	0	0	0	0	0	430	0	0	0	0	
0	0	0	0	0	0	430	0	0	0	0	
1	0	0	0	0	0	431	0	0	0	0	
2	0	0	0	0	0	432	0	0	0	0	
3	0	0	0	0	0	433	0	0	0	0	
4	0	0	0	0	0	434	0	0	0	0	
5	0	0	0	0	0	435	0	0	0	0	
6	0	0	0	0	3	435	0	0	0	0	
7	0	0	0	0	0	435	0	0	0	0	
8	0	0	0	0	0	435	0	0	0	0	
9	0	0	0	0	0	435	0	0	0	0	
10	0	0	0	0	0	436	0	0	0	0	
11	0	0	0	0	0	436	0	0	0	0	
12	0	0	0	0	0	439	0	0	0	0	
13	0	0	0	0	0	440	0	0	0	0	
14	0	0	0	0	2	442	0	0	0	0	
15	0	0	0	0	0	443	0	0	0	0	
0	0	0	0	0	0	444	0	0	0	0	
1	0	0	0	0	0	445	0	0	0	0	
2	0	0	0	0	0	446	0	0	0	0	
3	0	0	0	0	0	448	0	0	0	0	
4	0	0	0	0	0	448	0	0	0	0	
5	0	0	0	0	0	450	0	0	0	0	
6	0	0	0	0	2	452	0	0	0	0	
7	0	0	0	0	0	454	0	0	0	0	
8	0	0	0	0	0	458	0	0	0	0	
9	0	0	0	0	0	461	0	0	0	0	
10	0	0	0	0	0	463	0	0	0	0	
11	0	0	0	0	0	465	0	0	0	0	
12	0	0	0	0	0	467	0	0	0	0	
13	0	0	0	0	0	470	0	0	0	0	
14	0	0	0	0	2	474	0	0	0	0	
15	0	0	0	0	0	477	0	0	0	0	
0	0	0	0	0	0	480	0	0	0	0	
1	0	0	0	0	0	482	0	0	0	0	
2	0	0	0	0	0	483	0	0	0	0	
3	0	0	0	0	0	486	0	0	0	0	
4	0	0	0	0	0	487	0	0	0	0	
5	0	0	0	0	0	489	0	0	0	0	
6	0	0	0	0	3	489	0	0	0	0	
7	0	0	0	0	0	489	0	0	0	0	
8	0	0	0	0	0	489	0	0	0	0	
9	0	0	0	0	0	492	0	0	0	0	
10	0	0	0	0	0	494	0	0	0	0	
11	0	0	0	0	0	495	0	0	0	0	
12	0	0	0	0	0	496	0	0	0	0	
13	0	0	0	0	0	496	0	0	0	0	
14	0	0	0	0	2	497	0	0	0	0	
15	0	0	0	0	0	499	0	0	0	0	
0	0	0	0	0	0	500	0	0	0	0	
1	0	0	0	0	0	500	0	0	0	0	
2	0	0	0	0	0	500	0	0	0	0	
3	0	0	0	0	0	499	0	0	0	0	
4	0	0	0	0	0	498	0	0	0	0	
5	0	0	0	0	0	497	0	0	0	0	
6	0	0	0	0	2	496	0	0	0	0	
7	0	0	0	0	0	496	0	0	0	0	
8	0	0	0	0	0	494	0	0	0	0	
9	0	0	0	0	0	492	0	0	0	0	
10	0	0	0	0	0	488	0	0	0	0	
11	0	0	0	0	0	487	0	0	0	0	
12	0	0	0	0	0	484	0	0	0	0	
13	0	0	0	0	0	480	0	0	0	0	
14	0	0	0	0	3	479	0	0	0	0	
15	0	0	0	0	0	479	0	0	0	0	
0	0	0	0	0	0	480	0	0	0	0	
1	0	0	0	0	0	482	0	0	0	0	
2	0	0	0	0	0	484	0	0	0	0	
3	0	0	0	0	0	487	0	0	0	0	
4	0	0	0	0	0	489	0	0	0	0	
5	0	0	0	0	0	494	0	0	0	0	
6	0	0	0	0	2	498	0	0	0	0	
7	0	0	0	0	0	503	0	0	0	0	
8	0	0	0	0	0	508	0	0	0	0	
9	0	0	0	0	0	513	0	0	0	0	
10	0	0	0	0	0	518	0	0	0	0	
11	0	0	0	0	0	522	0	0	0	0	
12	0	0	0	0	0	527	0	0	0	0	
13	0	0	0	0	0	530	0	0	0	0	
14	0	0	0	0	3	532	0	0	0	0	
15	0	0	0	0	0	534	0	0	0	0	
0	0	0	0	0	0	536	0	0	0	0	
1	0	0	0	0	0	537	0	0	0	0	
2	0	0	0	0	0	537	0	0	0	0	
3	0	0	0	0	0	537	0	0	0	0	
4	0	0	0	0	0	538	0	0	0	0	
5	0	0	0	0	0	540	0	0	0	0	
6	0	0	0	0	2	542	0	0	0	0	
7	0	0	0	0	0	543	0	0	0	0	
8	0	0	0	0	0	544	0	0	0	0	
9	0	0	0	0	0	546	0	0	0	0	
10	0	0	0	0	0	547	0	0	0	0	
11	0	0	0	0	0	548	0	0	0	0	
12	0	0	0	0	0	549	0	0	0	0	
13	0	0	0	0	0	549	0	0	0	0	
14	0	0	0	0	0	548	0	0	0	0	
15	0	0	0	0	0	547	0	0	0	0	
0	0	0	0	0	0	544	0	0	0	0	
1	0	0	0	0	0	543	0	0	0	0	
2	0	0	0	0	0	543	0	0	0	0	
3	0	0	0	0	0	541	0	0	0	0	
4	0	0	0	0	0	538	0	0	0	0	
5	0	0	0	0	0	538	0	0	0	0	
6	0	0	0	0	1	538	0	0	0	0	
7	0	0	0	0	0	538	0	0	0	0	
8	0	0	0	0	0	538	0	0	0	0	
9	0	0	0	0	0	538	0	0	0	0	
10	0	0	0	0	0	538	0	0	0	0	
11	0	0	0	0	0	537	0	0	0	0	
12	0	0	0	0	0	535	0	0	0	0	
13	0	0	0	0	0	534	0	0	0	0	
14	0	0	0	0	1	534	0	0	0	0	
15	0	0	0	0	0	533	0	0	0	0	
0	0	0	0	0	0	534	0	0	0	0	
1	0	0	0	0	0	534	0	0	0	0	
2	0	0	0	0	0	533	0	0	0	0	
3	0	0	0	0	0	532	0	0	0	0	
4	0	0	0	0	0	532	0	0	0	0	
5	0	0	0	0	0	531	0	0	0	0	
6	0	0	0	0	2	530	0	0	0	0	
7	0	0	0	0	0	528	0	0	0	0	
8	0	0	0	0	0	526	0	0	0	0	
9	0	0	0	0	0	523	0	0	0	0	
10	0	0	0	0	0	520	0	0	0	0	
11	0	0	0	0	0	518	0	0	0	0	
12	0	0	0	0	0	516	0	0	0	0	
13	0	0	0	0	0	514	0	0	0	0	
14	0	0	0	0	2	512	0	0	0	0	
15	0	0	0	0	0	508	0	0	0	0	
0	0	0	0	0	0	504	0	0	0	0	
1	0	0	0	0	0	500	0	0	0	0	
2	0	0	0	0	0	497	0	0	0	0	
3	0	0	0	0	0	495	0	0	0	0	
4	0	0	0	0	0	494	0	0	0	0	
5	0	0	0	0	0	491	0	0	0	0	
6	0	0	0	0	2	489	0	0	0	0	
7	0	0	0	0	0	487	0	0	0	0	
8	0	0	0	0	0	485	0	0	0	0	
9	0	0	0	0	0	482	0	0	0	0	
10	0	0	0	0	0	480	0	0	0	0	
11	0	0	0	0	0	478	0	0	0	0	
12	0	0	0	0	0	475	0	0	0	0	
13	0	0	0	0	0	472	0	0	0	0	
14	0	0	0	0	2	468	0	0	0	0	
15	0	0	0	0	0	465	0	0	0	0	
0	0	0	0	0	0	461	0	0	0	0	
1	0	0	0	0	0	458	0	0	0	0	
2	0	0	0	0	0	455	0	0	0	0	
3	0	0	0	0	0	452	0	0	0	0	
4	0	0	0	0	0	449	0	0	0	0	
5	0	0	0	0	0	446	0	0	0	0	
6	0	0	0	0	2	444	0	0	0	0	
7	0	0	0	0	0	443	0	0	0	0	
8	0	0	0	0	0	442	0	0	0	0	
9	0	0	0	0	0	442	0	0	0	0	
10	0	0	0	0	0	442	0	0	0	0	
11	0	0	0	0	0	441	0	0	0	0	
12	0	0	0	0	0	440	0	0	0	0	
13	0	0	0	0	0	440	0	0	0	0	
14	0	0	0	0	3	439	0	0	0	0	
15	0	0	0	0	0	437	0	0	0	0	
0	0	0	0	0	0	437	0	0	0	0	
1	0	0	0	0	0	437	0	0	0	0	
2	0	0	0	0	0	438	0	0	0	0	
3	0	0	0	0	0	437	0	0	0	0	
4	0	0	0	0	0	436	0	0	0	0	
5	0	0	0	0	0	436	0	0	0	0	
6	0	0	0	0	3	436	0	0	0	0	
7	0	0	0	0	0	436	0	0	0	0	
8	0	0	0	0	0	436	0	0	0	0	
9	0	0	0	0	0	436	0	0	0	0	
10	0	0	0	0	0	436	0	0	0	0	
11	0	0	0	0	0	438	0	0	0	0	
12	0	0	0	0	0	438	0	0	0	0	
13	0	0	0	0	0	439	0	0	0	0	
14	0	0	0	0	2	441	0	0	0	0	
15	0	0	0	0	0	442	0	0	0	0	
0	0	0	0	0	0	444	0	0	0	0	
1	0	0	0	0	0	444	0	0	0	0	
2	0	0	0	0	0	446	0	0	0	0	
3	0	0	0	0	0	446	0	0	0	0	
4	0	0	0	0	0	448	0	0	0	0	
5	0	0	0	0	0	449	0	0	0	0	
6	0	0	0	0	2	451	0	0	0	0	
7	0	0	0	0	0	453	0	0	0	0	
8	0	0	0	0	0	455	0	0	0	0	
9	0	0	0	0	0	455	0	0	0	0	
10	0	0	0	0	0	455	0	0	0	0	
11	0	0	0	0	0	456	0	0	0	0	
12	0	0	0	0	0	457	0	0	0	0	
13	0	0	0	0	0	459	0	0	0	0	
14	0	0	0	0	3	462	0	0	0	0	
15	0	0	0	0	0	464	0	0	0	0	
0	0	0	0	0	0	465	0	0	0	0	
1	0	0	0	0	0	466	0	0	0	0	
2	0	0	0	0	0	467	0	0	0	0	
3	0	0	0	0	0	469	0	0	0	0	
4	0	0	0	0	0	471	0	0	0	0	
5	0	0	0	0	0	473	0	0	0	0	
6	0	0	0	0	1	476	0	0	0	0	
7	0	0	0	0	0	478	0	0	0	0	
8	0	0	0	0	0	479	0	0	0	0	
9	0	0	0	0	0	480	0	0	0	0	
10	0	0	0	0	0	483	0	0	0	0	
11	0	0	0	0	0	485	0	0	0	0	
12	0	0	0	0	0	487	0	0	0	0	
13	0	0	0	0	0	488	0	0	0	0	
14	0	0	0	0	1	490	0	0	0	0	
15	0	0	0	0	0	493	0	0	0	0	
0	0	0	0	0	0	496	0	0	0	0	
1	0	0	0	0	0	500	0	0	0	0	
2	0	0	0	0	0	502	0	0	0	0	
3	0	0	0	0	0	505	0	0	0	0	
4	0	0	0	0	0	508	0	0	0	0	
5	0	0	0	0	0	511	0	0	0	0	
6	0	0	0	0	1	512	0	0	0	0	
7	0	0	0	0	0	514	0	0	0	0	
8	0	0	0	0	0	516	0	0	0	0	
9	0	0	0	0	0	518	0	0	0	0	
10	0	0	0	0	0	519	0	0	0	0	
11	0	0	0	0	0	521	0	0	0	0	
12	0	0	0	0	0	524	0	0	0	0	
13	0	0	0	0	0	525	0	0	0	0	
14	0	0	0	0	3	526	0	0	0	0	
15	0	0	0	0	0	526	0	0	0	0	
0	0	0	0	0	0	527	0	0	0	0	
1	0	0	0	0	0	528	0	0	0	0	
2	0	0	0	0	0	529	0	0	0	0	
3	0	0	0	0	0	530	0	0	0	0	
4	0	0	0	0	0	532	0	0	0	0	
5	0	0	0	0	0	530	0	0	0	0	
6	0	0	0	0	3	529	0	0	0	0	
7	0	0	0	0	0	528	0	0	0	0	
8	0	0	0	0	0	527	0	0	0	0	
9	0	0	0	0	0	527	0	0	0	0	
10	0	0	0	0	0	526	0	0	0	0	
11	0	0	0	0	0	527	0	0	0	0	
12	0	0	0	0	0	527	0	0	0	0	
13	0	0	0	0	0	527	0	0	0	0	
14	0	0	0	0	3	528	0	0	0	0	
15	0	0	0	0	0	528	0	0	0	0	
0	0	0	0	0	0	528	0	0	0	0	
1	0	0	0	0	0	529	0	0	0	0	
2	0	0	0	0	0	529	0	0	0	0	
3	0	0	0	0	0	530	0	0	0	0	
4	0	0	0	0	0	529	0	0	0	0	
5	0	0	0	0	0	529	0	0	0	0	
6	0	0	0	0	3	529	0	0	0	0	
7	0	0	0	0	0	529	0	0	0	0	
8	0	0	0	0	0	529	0	0	0	0	
9	0	0	0	0	0	530	0	0	0	0	
10	0	0	0	0	0	530	0	0	0	0	
11	0	0	0	0	0	531	0	0	0	0	
12	0	0	0	0	0	531	0	0	0	0	
13	0	0	0	0	0	533	0	0	0	0	
14	0	0	0	0	2	537	0	0	0	0	
15	0	0	0	0	0	540	0	0	0	0	
0	0	0	0	0	0	541	0	0	0	0	
1	0	0	0	0	0	542	0	0	0	0	
2	0	0	0	0	0	544	0	0	0	0	
3	0	0	0	0	0	547	0	0	0	0	
4	0	0	0	0	0	548	0	0	0	0	
5	0	0	0	0	0	550	0	0	0	0	
6	0	0	0	0	2	551	0	0	0	0	
7	0	0	0	0	0	552	0	0	0	0	
8	0	0	0	0	0	552	0	0	0	0	
9	0	0	0	0	0	553	0	0	0	0	
10	0	0	0	0	0	554	0	0	0	0	
11	0	0	0	0	0	554	0	0	0	0	
12	0	0	0	0	0	555	0	0	0	0	
13	0	0	0	0	0	556	0	0	0	0	
14	0	0	0	0	3	558	0	0	0	0	
15	0	0	0	0	0	560	0	0	0	0	
0	0	0	0	0	0	563	0	0	0	0	
1	0	0	0	0	0	565	0	0	0	0	
2	0	0	0	0	0	568	0	0	0	0	
3	0	0	0	0	0	572	0	0	0	0	
4	0	0	0	0	0	575	0	0	0	0	
5	0	0	0	0	0	578	0	0	0	0	
6	0	0	0	0	3	581	0	0	0	0	
7	0	0	0	0	0	583	0	0	0	0	
8	0	0	0	0	0	585	0	0	0	0	
9	0	0	0	0	0	588	0	0	0	0	
10	0	0	0	0	0	590	0	0	0	0	
11	0	0	0	0	0	592	0	0	0	0	
12	0	0	0	0	0	592	0	0	0	0	
13	0	0	0	0	0	592	0	0	0	0	
14	0	0	0	0	2	590	0	0	0	0	
15	0	0	0	0	0	588	0	0	0	0	
0	0	0	0	0	0	584	0	0	0	0	
1	0	0	0	0	0	582	0	0	0	0	
2	0	0	0	0	0	580	0	0	0	0	
3	0	0	0	0	0	578	0	0	0	0	
4	0	0	0	0	0	577	0	0	0	0	
5	0	0	0	0	0	575	0	0	0	0	
6	0	0	0	0	2	575	0	0	0	0	
7	0	0	0	0	0	573	0	0	0	0	
8	0	0	0	0	0	572	0	0	0	0	
9	0	0	0	0	0	569	0	0	0	0	
10	0	0	0	0	0	567	0	0	0	0	
11	0	0	0	0	0	563	0	0	0	0	
12	0	0	0	0	0	559	0	0	0	0	
13	0	0	0	0	0	554	0	0	0	0	
14	0	0	0	0	2	549	0	0	0	0	
15	0	0	0	0	0	547	0	0	0	0	
0	0	0	0	0	0	545	0	0	0	0	
1	0	0	0	0	0	542	0	0	0	0	
2	0	0	0	0	0	539	0	0	0	0	
3	0	0	0	0	0	535	0	0	0	0	
4	0	0	0	0	0	531	0	0	0	0	
5	0	0	0	0	0	527	0	0	0	0	
6	0	0	0	0	1	526	0	0	0	0	
7	0	0	0	0	0	522	0	0	0	0	
8	0	0	0	0	0	519	0	0	0	0	
9	0	0	0	0	0	515	0	0	0	0	
10	0	0	0	0	0	511	0	0	0	0	
11	0	0	0	0	0	507	0	0	0	0	
12	0	0	0	0	0	503	0	0	0	0	
13	0	0	0	0	0	499	0	0	0	0	
14	0	0	0	0	1	496	0	0	0	0	
15	0	0	0	0	0	492	0	0	0	0	
0	0	0	0	0	0	489	0	0	0	0	
1	0	0	0	0	0	487	0	0	0	0	
2	0	0	0	0	0	484	0	0	0	0	
3	0	0	0	0	0	483	0	0	0	0	
4	0	0	0	0	0	482	0	0	0	0	
5	0	0	0	0	0	481	0	0	0	0	
6	0	0	0	0	1	483	0	0	0	0	
7	0	0	0	0	0	486	0	0	0	0	
8	0	0	0	0	0	490	0	0	0	0	
9	0	0	0	0	0	494	0	0	0	0	
10	0	0	0	0	0	499	0	0	0	0	
11	0	0	0	0	0	504	0	0	0	0	
12	0	0	0	0	0	509	0	0	0	0	
13	0	0	0	0	0	513	0	0	0	0	
14	0	0	0	0	2	517	0	0	0	0	
15	0	0	0	0	0	521	0	0	0	0	
0	0	0	0	0	0	525	0	0	0	0	
1	0	0	0	0	0	528	0	0	0	0	
2	0	0	0	0	0	533	0	0	0	0	
3	0	0	0	0	0	536	0	0	0	0	
4	0	0	0	0	0	537	0	0	0	0	
5	0	0	0	0	0	540	0	0	0	0	
6	0	0	0	0	2	540	0	0	0	0	
7	0	0	0	0	0	541	0	0	0	0	
8	0	0	0	0	0	540	0	0	0	0	
9	0	0	0	0	0	539	0	0	0	0	
10	0	0	0	0	0	539	0	0	0	0	
11	0	0	0	0	0	538	0	0	0	0	
12	0	0	0	0	0	539	0	0	0	0	
13	0	0	0	0	0	540	0	0	0	0	
14	0	0	0	0	2	540	0	0	0	0	
15	0	0	0	0	0	541	0	0	0	0	
0	0	0	0	0	0	542	0	0	0	0	
1	0	0	0	0	0	544	0	0	0	0	
2	0	0	0	0	0	547	0	0	0	0	
3	0	0	0	0	0	551	0	0	0	0	
4	0	0	0	0	0	554	0	0	0	0	
5	0	0	0	0	0	556	0	0	0	0	
6	0	0	0	0	2	557	0	0	0	0	
7	0	0	0	0	0	559	0	0	0	0	
8	0	0	0	0	0	559	0	0	0	0	
9	0	0	0	0	0	559	0	0	0	0	
10	0	0	0	0	0	560	0	0	0	0	
11	0	0	0	0	0	560	0	0	0	0	
12	0	0	0	0	0	561	0	0	0	0	
13	0	0	0	0	0	561	0	0	0	0	
14	0	0	0	0	2	560	0	0	0	0	
15	0	0	0	0	0	560	0	0	0	0	
0	0	0	0	0	0	558	0	0	0	0	
1	0	0	0	0	0	558	0	0	0	0	
2	0	0	0	0	0	555	0	0	0	0	
3	0	0	0	0	0	553	0	0	0	0	
4	0	0	0	0	0	551	0	0	0	0	
5	0	0	0	0	0	549	0	0	0	0	
6	0	0	0	0	3	548	0	0	0	0	
7	0	0	0	0	0	548	0	0	0	0	
8	0	0	0	0	0	548	0	0	0	0	
9	0	0	0	0	0	547	0	0	0	0	
10	0	0	0	0	0	545	0	0	0	0	
11	0	0	0	0	0	544	0	0	0	0	
12	0	0	0	0	0	543	0	0	0	0	
13	0	0	0	0	0	542	0	0	0	0	
14	0	0	0	0	2	540	0	0	0	0	
15	0	0	0	0	0	538	0	0	0	0	
0	0	0	0	0	0	537	0	0	0	0	
1	0	0	0	0	0	536	0	0	0	0	
2	0	0	0	0	0	534	0	0	0	0	
3	0	0	0	0	0	531	0	0	0	0	
4	0	0	0	0	0	528	0	0	0	0	
5	0	0	0	0	0	527	0	0	0	0	
6	0	0	0	0	2	527	0	0	0	0	
7	0	0	0	0	0	527	0	0	0	0	
8	0	0	0	0	0	527	0	0	0	0	
9	0	0	0	0	0	526	0	0	0	0	
10	0	0	0	0	0	526	0	0	0	0	
11	0	0	0	0	0	525	0	0	0	0	
12	0	0	0	0	0	526	0	0	0	0	
13	0	0	0	0	0	526	0	0	0	0	
14	0	0	0	0	2	525	0	0	0	0	
15	0	0	0	0	0	524	0	0	0	0	
0	0	0	0	0	0	526	0	0	0	0	
1	0	0	0	0	0	527	0	0	0	0	
2	0	0	0	0	0	527	0	0	0	0	
3	0	0	0	0	0	528	0	0	0	0	
4	0	0	0	0	0	529	0	0	0	0	
5	0	0	0	0	0	529	0	0	0	0	
6	0	0	0	0	2	529	0	0	0	0	
7	0	0	0	0	0	529	0	0	0	0	
8	0	0	0	0	0	529	0	0	0	0	
9	0	0	0	0	0	529	0	0	0	0	
10	0	0	0	0	0	528	0	0	0	0	
11	0	0	0	0	0	527	0	0	0	0	
12	0	0	0	0	0	527	0	0	0	0	
13	0	0	0	0	0	524	0	0	0	0	
14	0	0	0	0	2	522	0	0	0	0	
15	0	0	0	0	0	519	0	0	0	0	
0	0	0	0	0	0	514	0	0	0	0	
1	0	0	0	0	0	507	0	0	0	0	
2	0	0	0	0	0	499	0	0	0	0	
3	0	0	0	0	0	493	0	0	0	0	
4	0	0	0	0	0	487	0	0	0	0	
5	0	0	0	0	0	481	0	0	0	0	
6	0	0	0	0	1	479	0	0	0	0	
7	0	0	0	0	0	476	0	0	0	0	
8	0	0	0	0	0	478	0	0	0	0	
9	0	0	0	0	0	480	0	0	0	0	
10	0	0	0	0	0	483	0	0	0	0	
11	0	0	0	0	0	489	0	0	0	0	
12	0	0	0	0	0	497	0	0	0	0	
13	0	0	0	0	0	507	0	0	0	0	
14	0	0	0	0	1	518	0	0	0	0	
15	0	0	0	0	0	530	0	0	0	0	
0	0	0	0	0	0	542	0	0	0	0	
1	0	0	0	0	0	552	0	0	0	0	
2	0	0	0	0	0	565	0	0	0	0	
3	0	0	0	0	0	580	0	0	0	0	
4	0	0	0	0	0	598	0	0	0	0	
5	0	0	0	0	0	618	0	0	0	0	
6	0	0	0	0	1	638	1	0	0	0	
7	0	0	0	0	0	657	1	0	0	0	
8	0	0	0	0	0	679	1	0	0	0	
9	0	0	0	0	0	704	1	0	0	0	
10	0	0	0	0	0	735	1	0	0	0	
11	0	0	0	0	0	767	1	0	0	0	
12	0	0	0	0	0	800	1	0	0	0	
13	0	0	0	0	0	833	2	0	0	0	
14	0	0	0	0	2	869	1	0	0	0	
15	0	0	0	0	0	903	2	0	0	0	
0	0	0	0	0	0	937	2	0	0	0	
1	0	0	0	0	0	965	3	0	0	0	
2	0	0	0	0	0	991	3	0	0	0	
3	0	0	0	0	0	1014	3	0	0	0	
4	0	0	0	0	0	1022	3	0	0	0	
5	0	0	0	0	0	1022	3	0	0	0	
6	0	0	0	0	3	1022	3	0	0	0	
7	0	0	0	0	0	1022	3	0	0	0	
8	0	0	0	0	0	1022	3	0	0	0	
9	0	0	0	0	0	1022	3	0	0	0	
10	0	0	0	0	0	1022	3	0	0	0	
11	0	0	0	0	0	1021	3	0	0	0	
12	0	0	0	0	0	986	3	0	0	0	
13	0	0	0	0	0	942	2	0	0	0	
14	0	0	0	0	2	892	2	0	0	0	
15	0	0	0	0	0	844	2	0	0	0	
0	0	0	0	0	0	796	1	0	0	0	
1	0	0	0	0	0	750	1	0	0	0	
2	0	0	0	0	0	710	1	0	0	0	
3	0	0	0	0	0	675	1	0	0	0	
4	0	0	0	0	0	643	1	0	0	0	
5	0	0	0	0	0	612	0	0	0	0	
6	0	0	0	0	2	583	0	0	0	0	
7	0	0	0	0	0	556	0	0	0	0	
8	0	0	0	0	0	531	0	0	0	0	
9	0	0	0	0	0	507	0	0	0	0	
10	0	0	0	0	0	482	0	0	0	0	
11	0	0	0	0	0	465	0	0	0	0	
12	0	0	0	0	0	451	0	0	0	0	
13	0	0	0	0	0	437	0	0	0	0	
14	0	0	0	0	3	423	0	0	0	0	
15	0	0	0	0	0	409	0	0	0	0	
0	0	0	0	0	0	396	0	0	0	0	
1	0	0	0	0	0	385	0	0	0	0	
2	0	0	0	0	0	376	0	0	0	0	
3	0	0	0	0	0	371	0	0	0	0	
4	0	0	0	0	0	368	0	0	0	0	
5	0	0	0	0	0	367	0	0	0	0	
6	0	0	0	0	2	371	0	0	0	0	
7	0	0	0	0	0	377	0	0	0	0	
8	0	0	0	0	0	386	0	0	0	0	
9	0	0	0	0	0	396	0	0	0	0	
10	0	0	0	0	0	404	0	0	0	0	
11	0	0	0	0	0	412	0	0	0	0	
12	0	0	0	0	0	418	0	0	0	0	
13	0	0	0	0	0	425	0	0	0	0	
14	0	0	0	0	2	435	0	0	0	0	
15	0	0	0	0	0	446	0	0	0	0	
0	0	0	0	0	0	454	0	0	0	0	
1	0	0	0	0	0	461	0	0	0	0	
2	0	0	0	0	0	468	0	0	0	0	
3	0	0	0	0	0	472	0	0	0	0	
4	0	0	0	0	0	476	0	0	0	0	
5	0	0	0	0	0	479	0	0	0	0	
6	0	0	0	0	2	480	0	0	0	0	
7	0	0	0	0	0	485	0	0	0	0	
8	0	0	0	0	0	489	0	0	0	0	
9	0	0	0	0	0	492	0	0	0	0	
10	0	0	0	0	0	494	0	0	0	0	
11	0	0	0	0	0	495	0	0	0	0	
12	0	0	0	0	0	496	0	0	0	0	
13	0	0	0	0	0	498	0	0	0	0	
14	0	0	0	0	2	499	0	0	0	0	
15	0	0	0	0	0	497	0	0	0	0	
0	0	0	0	0	0	493	0	0	0	0	
1	0	0	0	0	0	491	0	0	0	0	
2	0	0	0	0	0	491	0	0	0	0	
3	0	0	0	0	0	489	0	0	0	0	
4	0	0	0	0	0	487	0	0	0	0	
5	0	0	0	0	0	484	0	0	0	0	
6	0	0	0	0	2	480	0	0	0	0	
7	0	0	0	0	0	477	0	0	0	0	
8	0	0	0	0	0	474	0	0	0	0	
9	0	0	0	0	0	471	0	0	0	0	
10	0	0	0	0	0	466	0	0	0	0	
11	0	0	0	0	0	462	0	0	0	0	
12	0	0	0	0	0	459	0	0	0	0	
13	0	0	0	0	0	455	0	0	0	0	
14	0	0	0	0	1	451	0	0	0	0	
15	0	0	0	0	0	449	0	0	0	0	
0	0	0	0	0	0	448	0	0	0	0	
1	0	0	0	0	0	447	0	0	0	0	
2	0	0	0	0	0	447	0	0	0	0	
3	0	0	0	0	0	445	0	0	0	0	
4	0	0	0	0	0	445	0	0	0	0	
5	0	0	0	0	0	446	0	0	0	0	
6	0	0	0	0	1	448	0	0	0	0	
7	0	0	0	0	0	450	0	0	0	0	
8	0	0	0	0	0	452	0	0	0	0	
9	0	0	0	0	0	454	0	0	0	0	
10	0	0	0	0	0	455	0	0	0	0	
11	0	0	0	0	0	456	0	0	0	0	
12	0	0	0	0	0	457	0	0	0	0	
13	0	0	0	0	0	458	0	0	0	0	
14	0	0	0	0	1	458	0	0	0	0	
15	0	0	0	0	0	459	0	0	0	0	
0	0	0	0	0	0	459	0	0	0	0	
1	0	0	0	0	0	460	0	0	0	0	
2	0	0	0	0	0	460	0	0	0	0	
3	0	0	0	0	0	460	0	0	0	0	
4	0	0	0	0	0	461	0	0	0	0	
5	0	0	0	0	0	463	0	0	0	0	
6	0	0	0	0	2	466	0	0	0	0	
7	0	0	0	0	0	469	0	0	0	0	
8	0	0	0	0	0	472	0	0	0	0	
9	0	0	0	0	0	476	0	0	0	0	
10	0	0	0	0	0	479	0	0	0	0	
11	0	0	0	0	0	487	0	0	0	0	
12	0	0	0	0	0	495	0	0	0	0	
13	0	0	0	0	0	504	0	0	0	0	
14	0	0	0	0	3	513	0	0	0	0	
15	0	0	0	0	0	519	0	0	0	0	
0	0	0	0	0	0	527	0	0	0	0	
1	0	0	0	0	0	537	0	0	0	0	
2	0	0	0	0	0	544	0	0	0	0	
3	0	0	0	0	0	550	0	0	0	0	
4	0	0	0	0	0	556	0	0	0	0	
5	0	0	0	0	0	562	0	0	0	0	
6	0	0	0	0	3	568	0	0	0	0	
7	0	0	0	0	0	574	0	0	0	0	
8	0	0	0	0	0	579	0	0	0	0	
9	0	0	0	0	0	584	0	0	0	0	
10	0	0	0	0	0	587	0	0	0	0	
11	0	0	0	0	0	590	0	0	0	0	
12	0	0	0	0	0	591	0	0	0	0	
13	0	0	0	0	0	591	0	0	0	0	
14	0	0	0	0	2	590	0	0	0	0	
15	0	0	0	0	0	590	0	0	0	0	
0	0	0	0	0	0	589	0	0	0	0	
1	0	0	0	0	0	585	0	0	0	0	
2	0	0	0	0	0	585	0	0	0	0	
3	0	0	0	0	0	587	0	0	0	0	
4	0	0	0	0	0	590	0	0	0	0	
5	0	0	0	0	0	595	0	0	0	0	
6	0	0	0	0	2	599	0	0	0	0	
7	0	0	0	0	0	603	0	0	0	0	
8	0	0	0	0	0	606	0	0	0	0	
9	0	0	0	0	0	610	0	0	0	0	
10	0	0	0	0	0	614	0	0	0	0	
11	0	0	0	0	0	617	0	0	0	0	
12	0	0	0	0	0	622	1	0	0	0	
13	0	0	0	0	0	628	0	0	0	0	
14	0	0	0	0	2	633	1	0	0	0	
15	0	0	0	0	0	639	1	0	0	0	
0	0	0	0	0	0	644	1	0	0	0	
1	0	0	0	0	0	649	1	0	0	0	
2	0	0	0	0	0	654	1	0	0	0	
3	0	0	0	0	0	659	1	0	0	0	
4	0	0	0	0	0	664	1	0	0	0	
5	0	0	0	0	0	666	1	0	0	0	
6	0	0	0	0	3	667	1	0	0	0	
7	0	0	0	0	0	668	1	0	0	0	
8	0	0	0	0	0	669	1	0	0	0	
9	0	0	0	0	0	669	1	0	0	0	
10	0	0	0	0	0	669	1	0	0	0	
11	0	0	0	0	0	667	1	0	0	0	
12	0	0	0	0	0	664	1	0	0	0	
13	0	0	0	0	0	661	1	0	0	0	
14	0	0	0	0	2	658	1	0	0	0	
15	0	0	0	0	0	654	1	0	0	0	
0	0	0	0	0	0	652	1	0	0	0	
1	0	0	0	0	0	649	1	0	0	0	
2	0	0	0	0	0	645	1	0	0	0	
3	0	0	0	0	0	639	1	0	0	0	
4	0	0	0	0	0	632	1	0	0	0	
5	0	0	0	0	0	627	1	0	0	0	
6	0	0	0	0	2	622	0	0	0	0	
7	0	0	0	0	0	616	0	0	0	0	
8	0	0	0	0	0	609	0	0	0	0	
9	0	0	0	0	0	602	0	0	0	0	
10	0	0	0	0	0	595	0	0	0	0	
11	0	0	0	0	0	589	0	0	0	0	
12	0	0	0	0	0	581	0	0	0	0	
13	0	0	0	0	0	573	0	0	0	0	
14	0	0	0	0	3	564	0	0	0	0	
15	0	0	0	0	0	555	0	0	0	0	
0	0	0	0	0	0	548	0	0	0	0	
1	0	0	0	0	0	541	0	0	0	0	
2	0	0	0	0	0	533	0	0	0	0	
3	0	0	0	0	0	525	0	0	0	0	
4	0	0	0	0	0	517	0	0	0	0	
5	0	0	0	0	0	508	0	0	0	0	
6	0	0	0	0	2	500	0	0	0	0	
7	0	0	0	0	0	492	0	0	0	0	
8	0	0	0	0	0	485	0	0	0	0	
9	0	0	0	0	0	477	0	0	0	0	
10	0	0	0	0	0	469	0	0	0	0	
11	0	0	0	0	0	462	0	0	0	0	
12	0	0	0	0	0	454	0	0	0	0	
13	0	0	0	0	0	448	0	0	0	0	
14	0	0	0	0	1	441	0	0	0	0	
15	0	0	0	0	0	435	0	0	0	0	
0	0	0	0	0	0	429	0	0	0	0	
1	0	0	0	0	0	423	0	0	0	0	
2	0	0	0	0	0	416	0	0	0	0	
3	0	0	0	0	0	408	0	0	0	0	
4	0	0	0	0	0	399	0	0	0	0	
5	0	0	0	0	0	392	0	0	0	0	
6	0	0	0	0	1	384	0	0	0	0	
7	0	0	0	0	0	377	0	0	0	0	
8	0	0	0	0	0	374	0	0	0	0	
9	0	0	0	0	0	373	0	0	0	0	
10	0	0	0	0	0	371	0	0	0	0	
11	0	0	0	0	0	371	0	0	0	0	
12	0	0	0	0	0	372	0	0	0	0	
13	0	0	0	0	0	374	0	0	0	0	
14	0	0	0	0	1	375	0	0	0	0	
15	0	0	0	0	0	376	0	0	0	0	
0	0	0	0	0	0	378	0	0	0	0	
1	0	0	0	0	0	381	0	0	0	0	
2	0	0	0	0	0	384	0	0	0	0	
3	0	0	0	0	0	387	0	0	0	0	
4	0	0	0	0	0	391	0	0	0	0	
5	0	0	0	0	0	395	0	0	0	0	
6	0	0	0	0	2	398	0	0	0	0	
7	0	0	0	0	0	401	0	0	0	0	
8	0	0	0	0	0	406	0	0	0	0	
9	0	0	0	0	0	411	0	0	0	0	
10	0	0	0	0	0	414	0	0	0	0	
11	0	0	0	0	0	417	0	0	0	0	
12	0	0	0	0	0	421	0	0	0	0	
13	0	0	0	0	0	425	0	0	0	0	
14	0	0	0	0	2	430	0	0	0	0	
15	0	0	0	0	0	435	0	0	0	0	
0	0	0	0	0	0	440	0	0	0	0	
1	0	0	0	0	0	442	0	0	0	0	
2	0	0	0	0	0	446	0	0	0	0	
3	0	0	0	0	0	450	0	0	0	0	
4	0	0	0	0	0	452	0	0	0	0	
5	0	0	0	0	0	455	0	0	0	0	
6	0	0	0	0	3	457	0	0	0	0	
7	0	0	0	0	0	458	0	0	0	0	
8	0	0	0	0	0	460	0	0	0	0	
9	0	0	0	0	0	462	0	0	0	0	
10	0	0	0	0	0	463	0	0	0	0	
11	0	0	0	0	0	463	0	0	0	0	
12	0	0	0	0	0	464	0	0	0	0	
13	0	0	0	0	0	466	0	0	0	0	
14	0	0	0	0	2	467	0	0	0	0	
15	0	0	0	0	0	468	0	0	0	0	
0	0	0	0	0	0	471	0	0	0	0	
1	0	0	0	0	0	473	0	0	0	0	
2	0	0	0	0	0	473	0	0	0	0	
3	0	0	0	0	0	475	0	0	0	0	
4	0	0	0	0	0	479	0	0	0	0	
5	0	0	0	0	0	481	0	0	0	0	
6	0	0	0	0	2	483	0	0	0	0	
7	0	0	0	0	0	486	0	0	0	0	
8	0	0	0	0	0	488	0	0	0	0	
9	0	0	0	0	0	491	0	0	0	0	
10	0	0	0	0	0	494	0	0	0	0	
11	0	0	0	0	0	498	0	0	0	0	
12	0	0	0	0	0	500	0	0	0	0	
13	0	0	0	0	0	503	0	0	0	0	
14	0	0	0	0	2	507	0	0	0	0	
15	0	0	0	0	0	511	0	0	0	0	
0	0	0	0	0	0	512	0	0	0	0	
1	0	0	0	0	0	515	0	0	0	0	
2	0	0	0	0	0	517	0	0	0	0	
3	0	0	0	0	0	520	0	0	0	0	
4	0	0	0	0	0	522	0	0	0	0	
5	0	0	0	0	0	524	0	0	0	0	
6	0	0	0	0	2	526	0	0	0	0	
7	0	0	0	0	0	526	0	0	0	0	
8	0	0	0	0	0	527	0	0	0	0	
9	0	0	0	0	0	528	0	0	0	0	
10	0	0	0	0	0	529	0	0	0	0	
11	0	0	0	0	0	531	0	0	0	0	
12	0	0	0	0	0	530	0	0	0	0	
13	0	0	0	0	0	533	0	0	0	0	
14	0	0	0	0	2	536	0	0	0	0	
15	0	0	0	0	0	536	0	0	0	0	
0	0	0	0	0	0	534	0	0	0	0	
1	0	0	0	0	0	536	0	0	0	0	
2	0	0	0	0	0	537	0	0	0	0	
3	0	0	0	0	0	536	0	0	0	0	
4	0	0	0	0	0	533	0	0	0	0	
5	0	0	0	0	0	530	0	0	0	0	
6	0	0	0	0	2	529	0	0	0	0	
7	0	0	0	0	0	527	0	0	0	0	
8	0	0	0	0	0	523	0	0	0	0	
9	0	0	0	0	0	519	0	0	0	0	
10	0	0	0	0	0	516	0	0	0	0	
11	0	0	0	0	0	512	0	0	0	0	
12	0	0	0	0	0	507	0	0	0	0	
13	0	0	0	0	0	502	0	0	0	0	
14	0	0	0	0	2	497	0	0	0	0	
15	0	0	0	0	0	491	0	0	0	0	
0	0	0	0	0	0	486	0	0	0	0	
1	0	0	0	0	0	481	0	0	0	0	
2	0	0	0	0	0	476	0	0	0	0	
3	0	0	0	0	0	473	0	0	0	0	
4	0	0	0	0	0	470	0	0	0	0	
5	0	0	0	0	0	466	0	0	0	0	
6	0	0	0	0	2	462	0	0	0	0	
7	0	0	0	0	0	457	0	0	0	0	
8	0	0	0	0	0	453	0	0	0	0	
9	0	0	0	0	0	450	0	0	0	0	
10	0	0	0	0	0	448	0	0	0	0	
11	0	0	0	0	0	445	0	0	0	0	
12	0	0	0	0	0	443	0	0	0	0	
13	0	0	0	0	0	441	0	0	0	0	
14	0	0	0	0	1	440	0	0	0	0	
15	0	0	0	0	0	440	0	0	0	0	
0	0	0	0	0	0	438	0	0	0	0	
1	0	0	0	0	0	436	0	0	0	0	
2	0	0	0	0	0	433	0	0	0	0	
3	0	0	0	0	0	428	0	0	0	0	
4	0	0	0	0	0	426	0	0	0	0	
5	0	0	0	0	0	425	0	0	0	0	
6	0	0	0	0	1	425	0	0	0	0	
7	0	0	0	0	0	424	0	0	0	0	
8	0	0	0	0	0	423	0	0	0	0	
9	0	0	0	0	0	422	0	0	0	0	
10	0	0	0	0	0	421	0	0	0	0	
11	0	0	0	0	0	421	0	0	0	0	
12	0	0	0	0	0	420	0	0	0	0	
13	0	0	0	0	0	419	0	0	0	0	
14	0	0	0	0	2	416	0	0	0	0	
15	0	0	0	0	0	414	0	0	0	0	
0	0	0	0	0	0	411	0	0	0	0	
1	0	0	0	0	0	409	0	0	0	0	
2	0	0	0	0	0	408	0	0	0	0	
3	0	0	0	0	0	408	0	0	0	0	
4	0	0	0	0	0	407	0	0	0	0	
5	0	0	0	0	0	406	0	0	0	0	
6	0	0	0	0	2	406	0	0	0	0	
7	0	0	0	0	0	407	0	0	0	0	
8	0	0	0	0	0	411	0	0	0	0	
9	0	0	0	0	0	413	0	0	0	0	
10	0	0	0	0	0	416	0	0	0	0	
11	0	0	0	0	0	418	0	0	0	0	
12	0	0	0	0	0	420	0	0	0	0	
13	0	0	0	0	0	423	0	0	0	0	
14	0	0	0	0	3	427	0	0	0	0	
15	0	0	0	0	0	431	0	0	0	0	
0	0	0	0	0	0	434	0	0	0	0	
1	0	0	0	0	0	438	0	0	0	0	
2	0	0	0	0	0	441	0	0	0	0	
3	0	0	0	0	0	445	0	0	0	0	
4	0	0	0	0	0	445	0	0	0	0	
5	0	0	0	0	0	450	0	0	0	0	
6	0	0	0	0	2	455	0	0	0	0	
7	0	0	0	0	0	459	0	0	0	0	
8	0	0	0	0	0	463	0	0	0	0	
9	0	0	0	0	0	465	0	0	0	0	
10	0	0	0	0	0	467	0	0	0	0	
11	0	0	0	0	0	470	0	0	0	0	
12	0	0	0	0	0	474	0	0	0	0	
13	0	0	0	0	0	479	0	0	0	0	
14	0	0	0	0	2	483	0	0	0	0	
15	0	0	0	0	0	487	0	0	0	0	
0	0	0	0	0	0	493	0	0	0	0	
1	0	0	0	0	0	498	0	0	0	0	
2	0	0	0	0	0	503	0	0	0	0	
3	0	0	0	0	0	509	0	0	0	0	
4	0	0	0	0	0	515	0	0	0	0	
5	0	0	0	0	0	522	0	0	0	0	
6	0	0	0	0	2	529	0	0	0	0	
7	0	0	0	0	0	536	0	0	0	0	
8	0	0	0	0	0	543	0	0	0	0	
9	0	0	0	0	0	550	0	0	0	0	
10	0	0	0	0	0	556	0	0	0	0	
11	0	0	0	0	0	561	0	0	0	0	
12	0	0	0	0	0	567	0	0	0	0	
13	0	0	0	0	0	572	0	0	0	0	
14	0	0	0	0	2	574	0	0	0	0	
15	0	0	0	0	0	577	0	0	0	0	
0	0	0	0	0	0	585	0	0	0	0	
1	0	0	0	0	0	592	0	0	0	0	
2	0	0	0	0	0	598	0	0	0	0	
3	0	0	0	0	0	602	0	0	0	0	
4	0	0	0	0	0	607	1	0	0	0	
5	0	0	0	0	0	613	0	0	0	0	
6	0	0	0	0	2	618	1	0	0	0	
7	0	0	0	0	0	623	1	0	0	0	
8	0	0	0	0	0	626	0	0	0	0	
9	0	0	0	0	0	629	0	0	0	0	
10	0	0	0	0	0	631	0	0	0	0	
11	0	0	0	0	0	632	0	0	0	0	
12	0	0	0	0	0	632	1	0	0	0	
13	0	0	0	0	0	634	1	0	0	0	
14	0	0	0	0	2	633	1	0	0	0	
15	0	0	0	0	0	632	0	0	0	0	
0	0	0	0	0	0	630	1	0	0	0	
1	0	0	0	0	0	629	1	0	0	0	
2	0	0	0	0	0	628	0	0	0	0	
3	0	0	0	0	0	627	0	0	0	0	
4	0	0	0	0	0	625	1	0	0	0	
5	0	0	0	0	0	624	0	0	0	0	
6	0	0	0	0	3	623	0	0	0	0	
7	0	0	0	0	0	620	0	0	0	0	
8	0	0	0	0	0	619	0	0	0	0	
9	0	0	0	0	0	616	0	0	0	0	
10	0	0	0	0	0	615	0	0	0	0	
11	0	0	0	0	0	612	0	0	0	0	
12	0	0	0	0	0	609	0	0	0	0	
13	0	0	0	0	0	604	0	0	0	0	
14	0	0	0	0	2	600	0	0	0	0	
15	0	0	0	0	0	596	0	0	0	0	
0	0	0	0	0	0	595	0	0	0	0	
1	0	0	0	0	0	591	0	0	0	0	
2	0	0	0	0	0	587	0	0	0	0	
3	0	0	0	0	0	585	0	0	0	0	
4	0	0	0	0	0	583	0	0	0	0	
5	0	0	0	0	0	579	0	0	0	0	
6	0	0	0	0	1	575	0	0	0	0	
7	0	0	0	0	0	571	0	0	0	0	
8	0	0	0	0	0	567	0	0	0	0	
9	0	0	0	0	0	563	0	0	0	0	
10	0	0	0	0	0	559	0	0	0	0	
11	0	0	0	0	0	554	0	0	0	0	
12	0	0	0	0	0	551	0	0	0	0	
13	0	0	0	0	0	548	0	0	0	0	
14	0	0	0	0	1	546	0	0	0	0	
15	0	0	0	0	0	544	0	0	0	0	
0	0	0	0	0	0	541	0	0	0	0	
1	0	0	0	0	0	537	0	0	0	0	
2	0	0	0	0	0	534	0	0	0	0	
3	0	0	0	0	0	530	0	0	0	0	
4	0	0	0	0	0	527	0	0	0	0	
5	0	0	0	0	0	522	0	0	0	0	
6	0	0	0	0	1	517	0	0	0	0	
7	0	0	0	0	0	513	0	0	0	0	
8	0	0	0	0	0	508	0	0	0	0	
9	0	0	0	0	0	504	0	0	0	0	
10	0	0	0	0	0	500	0	0	0	0	
11	0	0	0	0	0	495	0	0	0	0	
12	0	0	0	0	0	489	0	0	0	0	
13	0	0	0	0	0	484	0	0	0	0	
14	0	0	0	0	3	478	0	0	0	0	
15	0	0	0	0	0	471	0	0	0	0	
0	0	0	0	0	0	466	0	0	0	0	
1	0	0	0	0	0	460	0	0	0	0	
2	0	0	0	0	0	455	0	0	0	0	
3	0	0	0	0	0	451	0	0	0	0	
4	0	0	0	0	0	447	0	0	0	0	
5	0	0	0	0	0	442	0	0	0	0	
6	0	0	0	0	3	437	0	0	0	0	
7	0	0	0	0	0	432	0	0	0	0	
8	0	0	0	0	0	428	0	0	0	0	
9	0	0	0	0	0	423	0	0	0	0	
10	0	0	0	0	0	419	0	0	0	0	
11	0	0	0	0	0	417	0	0	0	0	
12	0	0	0	0	0	415	0	0	0	0	
13	0	0	0	0	0	411	0	0	0	0	
14	0	0	0	0	2	408	0	0	0	0	
15	0	0	0	0	0	404	0	0	0	0	
0	0	0	0	0	0	402	0	0	0	0	
1	0	0	0	0	0	399	0	0	0	0	
2	0	0	0	0	0	397	0	0	0	0	
3	0	0	0	0	0	393	0	0	0	0	
4	0	0	0	0	0	390	0	0	0	0	
5	0	0	0	0	0	387	0	0	0	0	
6	0	0	0	0	2	385	0	0	0	0	
7	0	0	0	0	0	383	0	0	0	0	
8	0	0	0	0	0	380	0	0	0	0	
9	0	0	0	0	0	379	0	0	0	0	
10	0	0	0	0	0	381	0	0	0	0	
11	0	0	0	0	0	382	0	0	0	0	
12	0	0	0	0	0	384	0	0	0	0	
13	0	0	0	0	0	386	0	0	0	0	
14	0	0	0	0	2	389	0	0	0	0	
15	0	0	0	0	0	393	0	0	0	0	
0	0	0	0	0	0	398	0	0	0	0	
1	0	0	0	0	0	401	0	0	0	0	
2	0	0	0	0	0	405	0	0	0	0	
3	0	0	0	0	0	408	0	0	0	0	
4	0	0	0	0	0	412	0	0	0	0	
5	0	0	0	0	0	416	0	0	0	0	
6	0	0	0	0	3	421	0	0	0	0	
7	0	0	0	0	0	426	0	0	0	0	
8	0	0	0	0	0	431	0	0	0	0	
9	0	0	0	0	0	435	0	0	0	0	
10	0	0	0	0	0	440	0	0	0	0	
11	0	0	0	0	0	446	0	0	0	0	
12	0	0	0	0	0	451	0	0	0	0	
13	0	0	0	0	0	457	0	0	0	0	
14	0	0	0	0	2	462	0	0	0	0	
15	0	0	0	0	0	468	0	0	0	0	
0	0	0	0	0	0	473	0	0	0	0	
1	0	0	0	0	0	479	0	0	0	0	
2	0	0	0	0	0	483	0	0	0	0	
3	0	0	0	0	0	488	0	0	0	0	
4	0	0	0	0	0	494	0	0	0	0	
5	0	0	0	0	0	498	0	0	0	0	
6	0	0	0	0	2	502	0	0	0	0	
7	0	0	0	0	0	505	0	0	0	0	
8	0	0	0	0	0	508	0	0	0	0	
9	0	0	0	0	0	511	0	0	0	0	
10	0	0	0	0	0	515	0	0	0	0	
11	0	0	0	0	0	520	0	0	0	0	
12	0	0	0	0	0	524	0	0	0	0	
13	0	0	0	0	0	527	0	0	0	0	
14	0	0	0	0	2	531	0	0	0	0	
15	0	0	0	0	0	532	0	0	0	0	
0	0	0	0	0	0	536	0	0	0	0	
1	0	0	0	0	0	541	0	0	0	0	
2	0	0	0	0	0	544	0	0	0	0	
3	0	0	0	0	0	549	0	0	0	0	
4	0	0	0	0	0	554	0	0	0	0	
5	0	0	0	0	0	559	0	0	0	0	
6	0	0	0	0	3	565	0	0	0	0	
7	0	0	0	0	0	571	0	0	0	0	
8	0	0	0	0	0	579	0	0	0	0	
9	0	0	0	0	0	586	0	0	0	0	
10	0	0	0	0	0	592	0	0	0	0	
11	0	0	0	0	0	600	0	0	0	0	
12	0	0	0	0	0	607	1	0	0	0	
13	0	0	0	0	0	612	0	0	0	0	
14	0	0	0	0	2	620	1	0	0	0	
15	0	0	0	0	0	626	1	0	0	0	
0	0	0	0	0	0	630	0	0	0	0	
1	0	0	0	0	0	633	0	0	0	0	
2	0	0	0	0	0	636	1	0	0	0	
3	0	0	0	0	0	638	1	0	0	0	
4	0	0	0	0	0	641	1	0	0	0	
5	0	0	0	0	0	644	1	0	0	0	
6	0	0	0	0	1	646	1	0	0	0	
7	0	0	0	0	0	649	1	0	0	0	
8	0	0	0	0	0	652	1	0	0	0	
9	0	0	0	0	0	655	1	0	0	0	
10	0	0	0	0	0	657	1	0	0	0	
11	0	0	0	0	0	659	1	0	0	0	
12	0	0	0	0	0	660	1	0	0	0	
13	0	0	0	0	0	661	1	0	0	0	
14	0	0	0	0	1	660	1	0	0	0	
15	0	0	0	0	0	661	1	0	0	0	
0	0	0	0	0	0	661	1	0	0	0	
1	0	0	0	0	0	661	1	0	0	0	
2	0	0	0	0	0	662	1	0	0	0	
3	0	0	0	0	0	663	1	0	0	0	
4	0	0	0	0	0	664	1	0	0	0	
5	0	0	0	0	0	665	1	0	0	0	
6	0	0	0	0	1	668	1	0	0	0	
7	0	0	0	0	0	672	1	0	0	0	
8	0	0	0	0	0	675	1	0	0	0	
9	0	0	0	0	0	678	1	0	0	0	
10	0	0	0	0	0	682	1	0	0	0	
11	0	0	0	0	0	688	1	0	0	0	
12	0	0	0	0	0	694	1	0	0	0	
13	0	0	0	0	0	700	1	0	0	0	
14	0	0	0	0	2	706	1	0	0	0	
15	0	0	0	0	0	711	1	0	0	0	
0	0	0	0	0	0	717	1	0	0	0	
1	0	0	0	0	0	723	1	0	0	0	
2	0	0	0	0	0	729	1	0	0	0	
3	0	0	0	0	0	734	1	0	0	0	
4	0	0	0	0	0	738	1	0	0	0	
5	0	0	0	0	0	742	1	0	0	0	
6	0	0	0	0	3	745	1	0	0	0	
7	0	0	0	0	0	748	1	0	0	0	
8	0	0	0	0	0	751	1	0	0	0	
9	0	0	0	0	0	753	1	0	0	0	
10	0	0	0	0	0	755	1	0	0	0	
11	0	0	0	0	0	756	1	0	0	0	
12	0	0	0	0	0	758	1	0	0	0	
13	0	0	0	0	0	757	1	0	0	0	
14	0	0	0	0	2	756	1	0	0	0	
15	0	0	0	0	0	754	1	0	0	0	
0	0	0	0	0	0	751	1	0	0	0	
1	0	0	0	0	0	750	1	0	0	0	
2	0	0	0	0	0	747	1	0	0	0	
3	0	0	0	0	0	744	1	0	0	0	
4	0	0	0	0	0	741	1	0	0	0	
5	0	0	0	0	0	739	1	0	0	0	
6	0	0	0	0	2	735	1	0	0	0	
7	0	0	0	0	0	730	1	0	0	0	
8	0	0	0	0	0	727	1	0	0	0	
9	0	0	0	0	0	723	1	0	0	0	
10	0	0	0	0	0	719	1	0	0	0	
11	0	0	0	0	0	713	1	0	0	0	
12	0	0	0	0	0	708	1	0	0	0	
13	0	0	0	0	0	702	1	0	0	0	
14	0	0	0	0	2	696	1	0	0	0	
15	0	0	0	0	0	688	1	0	0	0	
0	0	0	0	0	0	679	1	0	0	0	
1	0	0	0	0	0	672	0	0	0	0	
2	0	0	0	0	0	664	1	0	0	0	
3	0	0	0	0	0	657	1	0	0	0	
4	0	0	0	0	0	648	1	0	0	0	
5	0	0	0	0	0	639	1	0	0	0	
6	0	0	0	0	2	631	1	0	0	0	
7	0	0	0	0	0	624	0	0	0	0	
8	0	0	0	0	0	619	0	0	0	0	
9	0	0	0	0	0	614	0	0	0	0	
10	0	0	0	0	0	610	0	0	0	0	
11	0	0	0	0	0	606	0	0	0	0	
12	0	0	0	0	0	600	0	0	0	0	
13	0	0	0	0	0	597	0	0	0	0	
14	0	0	0	0	2	594	0	0	0	0	
15	0	0	0	0	0	589	0	0	0	0	
0	0	0	0	0	0	584	0	0	0	0	
1	0	0	0	0	0	579	0	0	0	0	
2	0	0	0	0	0	574	0	0	0	0	
3	0	0	0	0	0	569	0	0	0	0	
4	0	0	0	0	0	563	0	0	0	0	
5	0	0	0	0	0	560	0	0	0	0	
6	0	0	0	0	2	556	0	0	0	0	
7	0	0	0	0	0	550	0	0	0	0	
8	0	0	0	0	0	542	0	0	0	0	
9	0	0	0	0	0	534	0	0	0	0	
10	0	0	0	0	0	527	0	0	0	0	
11	0	0	0	0	0	520	0	0	0	0	
12	0	0	0	0	0	514	0	0	0	0	
13	0	0	0	0	0	508	0	0	0	0	
14	0	0	0	0	3	502	0	0	0	0	
15	0	0	0	0	0	496	0	0	0	0	
0	0	0	0	0	0	489	0	0	0	0	
1	0	0	0	0	0	483	0	0	0	0	
2	0	0	0	0	0	476	0	0	0	0	
3	0	0	0	0	0	471	0	0	0	0	
4	0	0	0	0	0	465	0	0	0	0	
5	0	0	0	0	0	459	0	0	0	0	
6	0	0	0	0	3	454	0	0	0	0	
7	0	0	0	0	0	451	0	0	0	0	
8	0	0	0	0	0	448	0	0	0	0	
9	0	0	0	0	0	444	0	0	0	0	
10	0	0	0	0	0	440	0	0	0	0	
11	0	0	0	0	0	437	0	0	0	0	
12	0	0	0	0	0	433	0	0	0	0	
13	0	0	0	0	0	430	0	0	0	0	
14	0	0	0	0	2	428	0	0	0	0	
15	0	0	0	0	0	425	0	0	0	0	
0	0	0	0	0	0	423	0	0	0	0	
1	0	0	0	0	0	423	0	0	0	0	
2	0	0	0	0	0	423	0	0	0	0	
3	0	0	0	0	0	425	0	0	0	0	
4	0	0	0	0	0	426	0	0	0	0	
5	0	0	0	0	0	428	0	0	0	0	
6	0	0	0	0	1	428	0	0	0	0	
7	0	0	0	0	0	428	0	0	0	0	
8	0	0	0	0	0	428	0	0	0	0	
9	0	0	0	0	0	429	0	0	0	0	
10	0	0	0	0	0	429	0	0	0	0	
11	0	0	0	0	0	430	0	0	0	0	
12	0	0	0	0	0	433	0	0	0	0	
13	0	0	0	0	0	435	0	0	0	0	
14	0	0	0	0	1	437	0	0	0	0	
15	0	0	0	0	0	438	0	0	0	0	
0	0	0	0	0	0	439	0	0	0	0	
1	0	0	0	0	0	441	0	0	0	0	
2	0	0	0	0	0	442	0	0	0	0	
3	0	0	0	0	0	442	0	0	0	0	
4	0	0	0	0	0	444	0	0	0	0	
5	0	0	0	0	0	446	0	0	0	0	
6	0	0	0	0	2	447	0	0	0	0	
7	0	0	0	0	0	449	0	0	0	0	
8	0	0	0	0	0	450	0	0	0	0	
9	0	0	0	0	0	450	0	0	0	0	
10	0	0	0	0	0	449	0	0	0	0	
11	0	0	0	0	0	448	0	0	0	0	
12	0	0	0	0	0	447	0	0	0	0	
13	0	0	0	0	0	446	0	0	0	0	
14	0	0	0	0	2	444	0	0	0	0	
15	0	0	0	0	0	441	0	0	0	0	
0	0	0	0	0	0	438	0	0	0	0	
1	0	0	0	0	0	434	0	0	0	0	
2	0	0	0	0	0	430	0	0	0	0	
3	0	0	0	0	0	426	0	0	0	0	
4	0	0	0	0	0	422	0	0	0	0	
5	0	0	0	0	0	418	0	0	0	0	
6	0	0	0	0	2	414	0	0	0	0	
7	0	0	0	0	0	410	0	0	0	0	
8	0	0	0	0	0	406	0	0	0	0	
9	0	0	0	0	0	402	0	0	0	0	
10	0	0	0	0	0	399	0	0	0	0	
11	0	0	0	0	0	394	0	0	0	0	
12	0	0	0	0	0	389	0	0	0	0	
13	0	0	0	0	0	384	0	0	0	0	
14	0	0	0	0	2	378	0	0	0	0	
15	0	0	0	0	0	371	0	0	0	0	
0	0	0	0	0	0	368	0	0	0	0	
1	0	0	0	0	0	364	0	0	0	0	
2	0	0	0	0	0	358	0	0	0	0	
3	0	0	0	0	0	352	0	0	0	0	
4	0	0	0	0	0	345	0	0	0	0	
5	0	0	0	0	0	339	0	0	0	0	
6	0	0	0	0	2	335	0	0	0	0	
7	0	0	0	0	0	332	0	0	0	0	
8	0	0	0	0	0	327	0	0	0	0	
9	0	0	0	0	0	323	0	0	0	0	
10	0	0	0	0	0	322	0	0	0	0	
11	0	0	0	0	0	321	0	0	0	0	
12	0	0	0	0	0	321	0	0	0	0	
13	0	0	0	0	0	322	0	0	0	0	
14	0	0	0	0	2	325	0	0	0	0	
15	0	0	0	0	0	332	0	0	0	0	
0	0	0	0	0	0	339	0	0	0	0	
1	0	0	0	0	0	348	0	0	0	0	
2	0	0	0	0	0	356	0	0	0	0	
3	0	0	0	0	0	363	0	0	0	0	
4	0	0	0	0	0	370	0	0	0	0	
5	0	0	0	0	0	379	0	0	0	0	
6	0	0	0	0	2	387	0	0	0	0	
7	0	0	0	0	0	400	0	0	0	0	
8	0	0	0	0	0	417	0	0	0	0	
9	0	0	0	0	0	432	0	0	0	0	
10	0	0	0	0	0	451	0	0	0	0	
11	0	0	0	0	0	473	0	0	0	0	
12	0	0	0	0	0	495	0	0	0	0	
13	0	0	0	0	0	523	0	0	0	0	
14	0	0	0	0	2	552	0	0	0	0	
15	0	0	0	0	0	581	0	0	0	0	
0	0	0	0	0	0	614	0	0	0	0	
1	0	0	0	0	0	643	0	0	0	0	
2	0	0	0	0	0	670	1	0	0	0	
3	0	0	0	0	0	696	1	0	0	0	
4	0	0	0	0	0	719	1	0	0	0	
5	0	0	0	0	0	738	1	0	0	0	
6	0	0	0	0	2	756	1	0	0	0	
7	0	0	0	0	0	772	1	0	0	0	
8	0	0	0	0	0	786	1	0	0	0	
9	0	0	0	0	0	792	1	0	0	0	
10	0	0	0	0	0	786	1	0	0	0	
11	0	0	0	0	0	773	1	0	0	0	
12	0	0	0	0	0	756	1	0	0	0	
13	0	0	0	0	0	731	1	0	0	0	
14	0	0	0	0	3	696	1	0	0	0	
15	0	0	0	0	0	653	1	0	0	0	
0	0	0	0	0	0	606	0	0	0	0	
1	0	0	0	0	0	556	0	0	0	0	
2	0	0	0	0	0	504	0	0	0	0	
3	0	0	0	0	0	455	0	0	0	0	
4	0	0	0	0	0	408	0	0	0	0	
5	0	0	0	0	0	367	0	0	0	0	
6	0	0	0	0	2	329	0	0	0	0	
7	0	0	0	0	0	294	0	0	0	0	
8	0	0	0	0	0	259	0	0	0	0	
9	0	0	0	0	0	231	0	0	0	0	
10	0	0	0	0	0	205	0	0	0	0	
11	0	0	0	0	0	183	0	0	0	0	
12	0	0	0	0	0	160	0	0	0	0	
13	0	0	0	0	0	141	0	0	0	0	
14	0	0	0	0	1	124	0	0	0	0	
15	0	0	0	0	0	112	0	0	0	0	
0	0	0	0	0	0	101	0	0	0	0	
1	0	0	0	0	0	91	0	0	0	0	
2	0	0	0	0	0	84	0	0	0	0	
3	0	0	0	0	0	80	0	0	0	0	
4	0	0	0	0	0	82	0	0	0	0	
5	0	0	0	0	0	87	0	0	0	0	
6	0	0	0	0	1	95	0	0	0	0	
7	0	0	0	0	0	107	0	0	0	0	
8	0	0	0	0	0	123	0	0	0	0	
9	0	0	0	0	0	143	0	0	0	0	
10	0	0	0	0	0	164	0	0	0	0	
11	0	0	0	0	0	185	0	0	0	0	
12	0	0	0	0	0	208	0	0	0	0	
13	0	0	0	0	0	228	0	0	0	0	
14	0	0	0	0	1	249	0	0	0	0	
15	0	0	0	0	0	268	0	0	0	0	
0	0	0	0	0	0	290	0	0	0	0	
1	0	0	0	0	0	315	0	0	0	0	
2	0	0	0	0	0	339	0	0	0	0	
3	0	0	0	0	0	363	0	0	0	0	
4	0	0	0	0	0	386	0	0	0	0	
5	0	0	0	0	0	409	0	0	0	0	
6	0	0	0	0	2	433	0	0	0	0	
7	0	0	0	0	0	457	0	0	0	0	
8	0	0	0	0	0	481	0	0	0	0	
9	0	0	0	0	0	501	0	0	0	0	
10	0	0	0	0	0	519	0	0	0	0	
11	0	0	0	0	0	535	0	0	0	0	
12	0	0	0	0	0	548	0	0	0	0	
13	0	0	0	0	0	559	0	0	0	0	
14	0	0	0	0	2	571	0	0	0	0	
15	0	0	0	0	0	582	0	0	0	0	
0	0	0	0	0	0	591	0	0	0	0	
1	0	0	0	0	0	598	0	0	0	0	
2	0	0	0	0	0	604	0	0	0	0	
3	0	0	0	0	0	610	0	0	0	0	
4	0	0	0	0	0	615	1	0	0	0	
5	0	0	0	0	0	620	0	0	0	0	
6	0	0	0	0	2	625	0	0	0	0	
7	0	0	0	0	0	627	1	0	0	0	
8	0	0	0	0	0	627	1	0	0	0	
9	0	0	0	0	0	632	0	0	0	0	
10	0	0	0	0	0	634	1	0	0	0	
11	0	0	0	0	0	635	1	0	0	0	
12	0	0	0	0	0	637	1	0	0	0	
13	0	0	0	0	0	638	0	0	0	0	
14	0	0	0	0	2	639	1	0	0	0	
15	0	0	0	0	0	640	1	0	0	0	
0	0	0	0	0	0	640	1	0	0	0	
1	0	0	0	0	0	640	0	0	0	0	
2	0	0	0	0	0	639	1	0	0	0	
3	0	0	0	0	0	638	1	0	0	0	
4	0	0	0	0	0	636	1	0	0	0	
5	0	0	0	0	0	634	1	0	0	0	
6	0	0	0	0	3	632	1	0	0	0	
7	0	0	0	0	0	630	0	0	0	0	
8	0	0	0	0	0	628	0	0	0	0	
9	0	0	0	0	0	627	0	0	0	0	
10	0	0	0	0	0	624	0	0	0	0	
11	0	0	0	0	0	623	0	0	0	0	
12	0	0	0	0	0	621	1	0	0	0	
13	0	0	0	0	0	619	0	0	0	0	
14	0	0	0	0	2	616	0	0	0	0	
15	0	0	0	0	0	614	1	0	0	0	
0	0	0	0	0	0	609	0	0	0	0	
1	0	0	0	0	0	605	0	0	0	0	
2	0	0	0	0	0	600	0	0	0	0	
3	0	0	0	0	0	596	0	0	0	0	
4	0	0	0	0	0	590	0	0	0	0	
5	0	0	0	0	0	584	0	0	0	0	
6	0	0	0	0	2	576	0	0	0	0	
7	0	0	0	0	0	570	0	0	0	0	
8	0	0	0	0	0	563	0	0	0	0	
9	0	0	0	0	0	556	0	0	0	0	
10	0	0	0	0	0	548	0	0	0	0	
11	0	0	0	0	0	540	0	0	0	0	
12	0	0	0	0	0	532	0	0	0	0	
13	0	0	0	0	0	523	0	0	0	0	
14	0	0	0	0	2	515	0	0	0	0	
15	0	0	0	0	0	509	0	0	0	0	
0	0	0	0	0	0	502	0	0	0	0	
1	0	0	0	0	0	494	0	0	0	0	
2	0	0	0	0	0	487	0	0	0	0	
3	0	0	0	0	0	478	0	0	0	0	
4	0	0	0	0	0	470	0	0	0	0	
5	0	0	0	0	0	461	0	0	0	0	
6	0	0	0	0	3	452	0	0	0	0	
7	0	0	0	0	0	443	0	0	0	0	
8	0	0	0	0	0	433	0	0	0	0	
9	0	0	0	0	0	419	0	0	0	0	
10	0	0	0	0	0	408	0	0	0	0	
11	0	0	0	0	0	398	0	0	0	0	
12	0	0	0	0	0	385	0	0	0	0	
13	0	0	0	0	0	371	0	0	0	0	
14	0	0	0	0	3	361	0	0	0	0	
15	0	0	0	0	0	352	0	0	0	0	
0	0	0	0	0	0	348	0	0	0	0	
1	0	0	0	0	0	344	0	0	0	0	
2	0	0	0	0	0	345	0	0	0	0	
3	0	0	0	0	0	348	0	0	0	0	
4	0	0	0	0	0	352	0	0	0	0	
5	0	0	0	0	0	355	0	0	0	0	
6	0	0	0	0	3	360	0	0	0	0	
7	0	0	0	0	0	365	0	0	0	0	
8	0	0	0	0	0	369	0	0	0	0	
9	0	0	0	0	0	372	0	0	0	0	
10	0	0	0	0	0	376	0	0	0	0	
11	0	0	0	0	0	379	0	0	0	0	
12	0	0	0	0	0	381	0	0	0	0	
13	0	0	0	0	0	384	0	0	0	0	
14	0	0	0	0	1	386	0	0	0	0	
15	0	0	0	0	0	388	0	0	0	0	
0	0	0	0	0	0	390	0	0	0	0	
1	0	0	0	0	0	390	0	0	0	0	
2	0	0	0	0	0	390	0	0	0	0	
3	0	0	0	0	0	387	0	0	0	0	
4	0	0	0	0	0	388	0	0	0	0	
5	0	0	0	0	0	386	0	0	0	0	
6	0	0	0	0	1	388	0	0	0	0	
7	0	0	0	0	0	390	0	0	0	0	
8	0	0	0	0	0	390	0	0	0	0	
9	0	0	0	0	0	391	0	0	0	0	
10	0	0	0	0	0	391	0	0	0	0	
11	0	0	0	0	0	393	0	0	0	0	
12	0	0	0	0	0	395	0	0	0	0	
13	0	0	0	0	0	396	0	0	0	0	
14	0	0	0	0	1	398	0	0	0	0	
15	0	0	0	0	0	402	0	0	0	0	
0	0	0	0	0	0	405	0	0	0	0	
1	0	0	0	0	0	408	0	0	0	0	
2	0	0	0	0	0	413	0	0	0	0	
3	0	0	0	0	0	417	0	0	0	0	
4	0	0	0	0	0	422	0	0	0	0	
5	0	0	0	0	0	426	0	0	0	0	
6	0	0	0	0	3	429	0	0	0	0	
7	0	0	0	0	0	431	0	0	0	0	
8	0	0	0	0	0	433	0	0	0	0	
9	0	0	0	0	0	435	0	0	0	0	
10	0	0	0	0	0	438	0	0	0	0	
11	0	0	0	0	0	440	0	0	0	0	
12	0	0	0	0	0	441	0	0	0	0	
13	0	0	0	0	0	444	0	0	0	0	
14	0	0	0	0	2	445	0	0	0	0	
15	0	0	0	0	0	446	0	0	0	0	
0	0	0	0	0	0	447	0	0	0	0	
1	0	0	0	0	0	446	0	0	0	0	
2	0	0	0	0	0	444	0	0	0	0	
3	0	0	0	0	0	441	0	0	0	0	
4	0	0	0	0	0	437	0	0	0	0	
5	0	0	0	0	0	435	0	0	0	0	
6	0	0	0	0	2	432	0	0	0	0	
7	0	0	0	0	0	429	0	0	0	0	
8	0	0	0	0	0	426	0	0	0	0	
9	0	0	0	0	0	424	0	0	0	0	
10	0	0	0	0	0	420	0	0	0	0	
11	0	0	0	0	0	417	0	0	0	0	
